,index,participant_id,tag_timestamp,metric,unix_timestamp,timestamp,eda,temperature,bvp
0,75859,1-1-001,2024-10-04 23:11:18.168359,eda,1728083328289027,2024-10-04 23:08:48.289027,0.1836364865303039,,
1,75860,1-1-001,2024-10-04 23:11:18.168359,eda,1728083328539027,2024-10-04 23:08:48.539027,0.1817572116851806,,
2,75861,1-1-001,2024-10-04 23:11:18.168359,eda,1728083328789027,2024-10-04 23:08:48.789027,0.1794291585683822,,
3,75862,1-1-001,2024-10-04 23:11:18.168359,eda,1728083329039027,2024-10-04 23:08:49.039027,0.1807194054126739,,
4,75863,1-1-001,2024-10-04 23:11:18.168359,eda,1728083329289027,2024-10-04 23:08:49.289027,0.1844779551029205,,
5,75864,1-1-001,2024-10-04 23:11:18.168359,eda,1728083329539027,2024-10-04 23:08:49.539027,0.184113323688507,,
6,75865,1-1-001,2024-10-04 23:11:18.168359,eda,1728083329789027,2024-10-04 23:08:49.789027,0.1844639331102371,,
7,75866,1-1-001,2024-10-04 23:11:18.168359,eda,1728083330039027,2024-10-04 23:08:50.039027,0.1834401488304138,,
8,75867,1-1-001,2024-10-04 23:11:18.168359,eda,1728083330289027,2024-10-04 23:08:50.289027,0.1842816174030304,,
9,75868,1-1-001,2024-10-04 23:11:18.168359,eda,1728083330539027,2024-10-04 23:08:50.539027,0.1865956485271453,,
10,75869,1-1-001,2024-10-04 23:11:18.168359,eda,1728083330789027,2024-10-04 23:08:50.789027,0.1888676136732101,,
11,75870,1-1-001,2024-10-04 23:11:18.168359,eda,1728083331039027,2024-10-04 23:08:51.039027,0.1897371262311935,,
12,75871,1-1-001,2024-10-04 23:11:18.168359,eda,1728083331289027,2024-10-04 23:08:51.289027,0.189596876502037,,
13,75872,1-1-001,2024-10-04 23:11:18.168359,eda,1728083331539027,2024-10-04 23:08:51.539027,0.1901859045028686,,
14,75873,1-1-001,2024-10-04 23:11:18.168359,eda,1728083331789027,2024-10-04 23:08:51.789027,0.1898072510957718,,
15,75874,1-1-001,2024-10-04 23:11:18.168359,eda,1728083332039027,2024-10-04 23:08:52.039027,0.1898773610591888,,
16,75875,1-1-001,2024-10-04 23:11:18.168359,eda,1728083332289027,2024-10-04 23:08:52.289027,0.1888535767793655,,
17,75876,1-1-001,2024-10-04 23:11:18.168359,eda,1728083332539027,2024-10-04 23:08:52.539027,0.1885590702295303,,
18,75877,1-1-001,2024-10-04 23:11:18.168359,eda,1728083332789027,2024-10-04 23:08:52.789027,0.1868621110916137,,
19,75878,1-1-001,2024-10-04 23:11:18.168359,eda,1728083333039027,2024-10-04 23:08:53.039027,0.1866517513990402,,
20,75879,1-1-001,2024-10-04 23:11:18.168359,eda,1728083333289027,2024-10-04 23:08:53.289027,0.1866236925125122,,
21,75880,1-1-001,2024-10-04 23:11:18.168359,eda,1728083333539027,2024-10-04 23:08:53.539027,0.1871566325426101,,
22,75881,1-1-001,2024-10-04 23:11:18.168359,eda,1728083333789027,2024-10-04 23:08:53.789027,0.1931310445070266,,
23,75882,1-1-001,2024-10-04 23:11:18.168359,eda,1728083334039027,2024-10-04 23:08:54.039027,0.1920932233333587,,
24,75883,1-1-001,2024-10-04 23:11:18.168359,eda,1728083334289027,2024-10-04 23:08:54.289027,0.1898633390665054,,
25,75884,1-1-001,2024-10-04 23:11:18.168359,eda,1728083334539027,2024-10-04 23:08:54.539027,0.1914761513471603,,
26,75885,1-1-001,2024-10-04 23:11:18.168359,eda,1728083334789027,2024-10-04 23:08:54.789027,0.1917566359043121,,
27,75886,1-1-001,2024-10-04 23:11:18.168359,eda,1728083335039027,2024-10-04 23:08:55.039027,0.1909852921962738,,
28,75887,1-1-001,2024-10-04 23:11:18.168359,eda,1728083335289027,2024-10-04 23:08:55.289027,0.1896389573812484,,
29,75888,1-1-001,2024-10-04 23:11:18.168359,eda,1728083335539027,2024-10-04 23:08:55.539027,0.1908871233463287,,
30,75889,1-1-001,2024-10-04 23:11:18.168359,eda,1728083335789027,2024-10-04 23:08:55.789027,0.190199926495552,,
31,75890,1-1-001,2024-10-04 23:11:18.168359,eda,1728083336039027,2024-10-04 23:08:56.039027,0.1911816447973251,,
32,75891,1-1-001,2024-10-04 23:11:18.168359,eda,1728083336289027,2024-10-04 23:08:56.289027,0.1930749416351318,,
33,75892,1-1-001,2024-10-04 23:11:18.168359,eda,1728083336539027,2024-10-04 23:08:56.539027,0.1897231042385101,,
34,75893,1-1-001,2024-10-04 23:11:18.168359,eda,1728083336789027,2024-10-04 23:08:56.789027,0.19022798538208,,
35,75894,1-1-001,2024-10-04 23:11:18.168359,eda,1728083337039027,2024-10-04 23:08:57.039027,0.193018838763237,,
36,75895,1-1-001,2024-10-04 23:11:18.168359,eda,1728083337289027,2024-10-04 23:08:57.289027,0.1913779824972152,,
37,75896,1-1-001,2024-10-04 23:11:18.168359,eda,1728083337539027,2024-10-04 23:08:57.539027,0.1922334730625152,,
38,75897,1-1-001,2024-10-04 23:11:18.168359,eda,1728083337789027,2024-10-04 23:08:57.789027,0.190704807639122,,
39,75898,1-1-001,2024-10-04 23:11:18.168359,eda,1728083338039027,2024-10-04 23:08:58.039027,0.1907889544963836,,
40,75899,1-1-001,2024-10-04 23:11:18.168359,eda,1728083338289027,2024-10-04 23:08:58.289027,0.1935237199068069,,
41,75900,1-1-001,2024-10-04 23:11:18.168359,eda,1728083338539027,2024-10-04 23:08:58.539027,0.190480425953865,,
42,75901,1-1-001,2024-10-04 23:11:18.168359,eda,1728083338789027,2024-10-04 23:08:58.789027,0.1899334639310836,,
43,75902,1-1-001,2024-10-04 23:11:18.168359,eda,1728083339039027,2024-10-04 23:08:59.039027,0.1898072510957718,,
44,75903,1-1-001,2024-10-04 23:11:18.168359,eda,1728083339289027,2024-10-04 23:08:59.289027,0.1897651702165603,,
45,75904,1-1-001,2024-10-04 23:11:18.168359,eda,1728083339539027,2024-10-04 23:08:59.539027,0.1903962790966034,,
46,75905,1-1-001,2024-10-04 23:11:18.168359,eda,1728083339789027,2024-10-04 23:08:59.789027,0.1912657916545868,,
47,75906,1-1-001,2024-10-04 23:11:18.168359,eda,1728083340039027,2024-10-04 23:09:00.039027,0.1892743110656738,,
48,75907,1-1-001,2024-10-04 23:11:18.168359,eda,1728083340289027,2024-10-04 23:09:00.289027,0.1914481073617935,,
49,75908,1-1-001,2024-10-04 23:11:18.168359,eda,1728083340539027,2024-10-04 23:09:00.539027,0.1898212730884552,,
50,75909,1-1-001,2024-10-04 23:11:18.168359,eda,1728083340789027,2024-10-04 23:09:00.789027,0.1904383450746536,,
51,75910,1-1-001,2024-10-04 23:11:18.168359,eda,1728083341039027,2024-10-04 23:09:01.039027,0.1893724948167801,,
52,75911,1-1-001,2024-10-04 23:11:18.168359,eda,1728083341289027,2024-10-04 23:09:01.289027,0.190704807639122,,
53,75912,1-1-001,2024-10-04 23:11:18.168359,eda,1728083341539027,2024-10-04 23:09:01.539027,0.1888395547866821,,
54,75913,1-1-001,2024-10-04 23:11:18.168359,eda,1728083341789027,2024-10-04 23:09:01.789027,0.1890919953584671,,
55,75914,1-1-001,2024-10-04 23:11:18.168359,eda,1728083342039027,2024-10-04 23:09:02.039027,0.1902980953454971,,
56,75915,1-1-001,2024-10-04 23:11:18.168359,eda,1728083342289027,2024-10-04 23:09:02.289027,0.1889517605304718,,
57,75916,1-1-001,2024-10-04 23:11:18.168359,eda,1728083342539027,2024-10-04 23:09:02.539027,0.1903822422027588,,
58,75917,1-1-001,2024-10-04 23:11:18.168359,eda,1728083342789027,2024-10-04 23:09:02.789027,0.1914621293544769,,
59,75918,1-1-001,2024-10-04 23:11:18.168359,eda,1728083343039027,2024-10-04 23:09:03.039027,0.1897231042385101,,
60,75919,1-1-001,2024-10-04 23:11:18.168359,eda,1728083343289027,2024-10-04 23:09:03.289027,0.1883346736431121,,
61,75920,1-1-001,2024-10-04 23:11:18.168359,eda,1728083343539027,2024-10-04 23:09:03.539027,0.189344435930252,,
62,75921,1-1-001,2024-10-04 23:11:18.168359,eda,1728083343789027,2024-10-04 23:09:03.789027,0.1886993199586868,,
63,75922,1-1-001,2024-10-04 23:11:18.168359,eda,1728083344039027,2024-10-04 23:09:04.039027,0.189596876502037,,
64,75923,1-1-001,2024-10-04 23:11:18.168359,eda,1728083344289027,2024-10-04 23:09:04.289027,0.1903121322393417,,
65,75924,1-1-001,2024-10-04 23:11:18.168359,eda,1728083344539027,2024-10-04 23:09:04.539027,0.1901859045028686,,
66,75925,1-1-001,2024-10-04 23:11:18.168359,eda,1728083344789027,2024-10-04 23:09:04.789027,0.1898913979530334,,
67,75926,1-1-001,2024-10-04 23:11:18.168359,eda,1728083345039027,2024-10-04 23:09:05.039027,0.1894145607948303,,
68,75927,1-1-001,2024-10-04 23:11:18.168359,eda,1728083345289027,2024-10-04 23:09:05.289027,0.1880962699651718,,
69,75928,1-1-001,2024-10-04 23:11:18.168359,eda,1728083345539027,2024-10-04 23:09:05.539027,0.189344435930252,,
70,75929,1-1-001,2024-10-04 23:11:18.168359,eda,1728083345789027,2024-10-04 23:09:05.789027,0.1917846947908401,,
71,75930,1-1-001,2024-10-04 23:11:18.168359,eda,1728083346039027,2024-10-04 23:09:06.039027,0.1927523761987686,,
72,75931,1-1-001,2024-10-04 23:11:18.168359,eda,1728083346289027,2024-10-04 23:09:06.289027,0.195963978767395,,
73,75932,1-1-001,2024-10-04 23:11:18.168359,eda,1728083346539027,2024-10-04 23:09:06.539027,0.1959780007600784,,
74,75933,1-1-001,2024-10-04 23:11:18.168359,eda,1728083346789027,2024-10-04 23:09:06.789027,0.1959218978881836,,
75,75934,1-1-001,2024-10-04 23:11:18.168359,eda,1728083347039027,2024-10-04 23:09:07.039027,0.1942810416221618,,
76,75935,1-1-001,2024-10-04 23:11:18.168359,eda,1728083347289027,2024-10-04 23:09:07.289027,0.1916304230690002,,
77,75936,1-1-001,2024-10-04 23:11:18.168359,eda,1728083347539027,2024-10-04 23:09:07.539027,0.19193896651268,,
78,75937,1-1-001,2024-10-04 23:11:18.168359,eda,1728083347789027,2024-10-04 23:09:07.789027,0.1923456639051437,,
79,75938,1-1-001,2024-10-04 23:11:18.168359,eda,1728083348039027,2024-10-04 23:09:08.039027,0.1896249204874038,,
80,75939,1-1-001,2024-10-04 23:11:18.168359,eda,1728083348289027,2024-10-04 23:09:08.289027,0.1909993290901184,,
81,75940,1-1-001,2024-10-04 23:11:18.168359,eda,1728083348539027,2024-10-04 23:09:08.539027,0.1909852921962738,,
82,75941,1-1-001,2024-10-04 23:11:18.168359,eda,1728083348789027,2024-10-04 23:09:08.789027,0.1912377327680587,,
83,75942,1-1-001,2024-10-04 23:11:18.168359,eda,1728083349039027,2024-10-04 23:09:09.039027,0.1895267516374588,,
84,75943,1-1-001,2024-10-04 23:11:18.168359,eda,1728083349289027,2024-10-04 23:09:09.289027,0.1878999173641204,,
85,75944,1-1-001,2024-10-04 23:11:18.168359,eda,1728083349539027,2024-10-04 23:09:09.539027,0.1882785856723785,,
86,75945,1-1-001,2024-10-04 23:11:18.168359,eda,1728083349789027,2024-10-04 23:09:09.789027,0.1893584579229354,,
87,75946,1-1-001,2024-10-04 23:11:18.168359,eda,1728083350039027,2024-10-04 23:09:10.039027,0.1889657825231552,,
88,75947,1-1-001,2024-10-04 23:11:18.168359,eda,1728083350289027,2024-10-04 23:09:10.289027,0.1878157705068588,,
89,75948,1-1-001,2024-10-04 23:11:18.168359,eda,1728083350539027,2024-10-04 23:09:10.539027,0.1890779733657837,,
90,75949,1-1-001,2024-10-04 23:11:18.168359,eda,1728083350789027,2024-10-04 23:09:10.789027,0.1918968856334686,,
91,75950,1-1-001,2024-10-04 23:11:18.168359,eda,1728083351039027,2024-10-04 23:09:11.039027,0.1902560293674469,,
92,75951,1-1-001,2024-10-04 23:11:18.168359,eda,1728083351289027,2024-10-04 23:09:11.289027,0.1920792013406753,,
93,75952,1-1-001,2024-10-04 23:11:18.168359,eda,1728083351539027,2024-10-04 23:09:11.539027,0.1919950544834137,,
94,75953,1-1-001,2024-10-04 23:11:18.168359,eda,1728083351789027,2024-10-04 23:09:11.789027,0.1870444267988205,,
95,75954,1-1-001,2024-10-04 23:11:18.168359,eda,1728083352039027,2024-10-04 23:09:12.039027,0.1869041919708252,,
96,75955,1-1-001,2024-10-04 23:11:18.168359,eda,1728083352289027,2024-10-04 23:09:12.289027,0.1865255236625671,,
97,75956,1-1-001,2024-10-04 23:11:18.168359,eda,1728083352539027,2024-10-04 23:09:12.539027,0.1856840550899505,,
98,75957,1-1-001,2024-10-04 23:11:18.168359,eda,1728083352789027,2024-10-04 23:09:12.789027,0.1877456456422805,,
99,75958,1-1-001,2024-10-04 23:11:18.168359,eda,1728083353039027,2024-10-04 23:09:13.039027,0.1878017485141754,,
100,75959,1-1-001,2024-10-04 23:11:18.168359,eda,1728083353289027,2024-10-04 23:09:13.289027,0.1879139393568039,,
101,75960,1-1-001,2024-10-04 23:11:18.168359,eda,1728083353539027,2024-10-04 23:09:13.539027,0.1890639513731002,,
102,75961,1-1-001,2024-10-04 23:11:18.168359,eda,1728083353789027,2024-10-04 23:09:13.789027,0.1875913888216018,,
103,75962,1-1-001,2024-10-04 23:11:18.168359,eda,1728083354039027,2024-10-04 23:09:14.039027,0.1868480890989303,,
104,75963,1-1-001,2024-10-04 23:11:18.168359,eda,1728083354289027,2024-10-04 23:09:14.289027,0.1871145516633987,,
105,75964,1-1-001,2024-10-04 23:11:18.168359,eda,1728083354539027,2024-10-04 23:09:14.539027,0.1860487014055252,,
106,75965,1-1-001,2024-10-04 23:11:18.168359,eda,1728083354789027,2024-10-04 23:09:14.789027,0.1881102919578552,,
107,75966,1-1-001,2024-10-04 23:11:18.168359,eda,1728083355039027,2024-10-04 23:09:15.039027,0.1881944388151168,,
108,75967,1-1-001,2024-10-04 23:11:18.168359,eda,1728083355289027,2024-10-04 23:09:15.289027,0.1889096796512603,,
109,75968,1-1-001,2024-10-04 23:11:18.168359,eda,1728083355539027,2024-10-04 23:09:15.539027,0.1854175925254821,,
110,75969,1-1-001,2024-10-04 23:11:18.168359,eda,1728083355789027,2024-10-04 23:09:15.789027,0.1865395456552505,,
111,75970,1-1-001,2024-10-04 23:11:18.168359,eda,1728083356039027,2024-10-04 23:09:16.039027,0.1872407644987106,,
112,75971,1-1-001,2024-10-04 23:11:18.168359,eda,1728083356289027,2024-10-04 23:09:16.289027,0.1867639422416687,,
113,75972,1-1-001,2024-10-04 23:11:18.168359,eda,1728083356539027,2024-10-04 23:09:16.539027,0.1856279671192169,,
114,75973,1-1-001,2024-10-04 23:11:18.168359,eda,1728083356789027,2024-10-04 23:09:16.789027,0.1867358982563018,,
115,75974,1-1-001,2024-10-04 23:11:18.168359,eda,1728083357039027,2024-10-04 23:09:17.039027,0.1865255236625671,,
116,75975,1-1-001,2024-10-04 23:11:18.168359,eda,1728083357289027,2024-10-04 23:09:17.289027,0.1879560202360153,,
117,75976,1-1-001,2024-10-04 23:11:18.168359,eda,1728083357539027,2024-10-04 23:09:17.539027,0.1883206516504287,,
118,75977,1-1-001,2024-10-04 23:11:18.168359,eda,1728083357789027,2024-10-04 23:09:17.789027,0.187535285949707,,
119,75978,1-1-001,2024-10-04 23:11:18.168359,eda,1728083358039027,2024-10-04 23:09:18.039027,0.1882084608078003,,
120,75979,1-1-001,2024-10-04 23:11:18.168359,eda,1728083358289027,2024-10-04 23:09:18.289027,0.1867218613624572,,
121,75980,1-1-001,2024-10-04 23:11:18.168359,eda,1728083358539027,2024-10-04 23:09:18.539027,0.1856560111045837,,
122,75981,1-1-001,2024-10-04 23:11:18.168359,eda,1728083358789027,2024-10-04 23:09:18.789027,0.1865255236625671,,
123,75982,1-1-001,2024-10-04 23:11:18.168359,eda,1728083359039027,2024-10-04 23:09:19.039027,0.1869602799415588,,
124,75983,1-1-001,2024-10-04 23:11:18.168359,eda,1728083359289027,2024-10-04 23:09:19.289027,0.1876334547996521,,
125,75984,1-1-001,2024-10-04 23:11:18.168359,eda,1728083359539027,2024-10-04 23:09:19.539027,0.1864834576845169,,
126,75985,1-1-001,2024-10-04 23:11:18.168359,eda,1728083359789027,2024-10-04 23:09:19.789027,0.1884188205003738,,
127,75986,1-1-001,2024-10-04 23:11:18.168359,eda,1728083360039027,2024-10-04 23:09:20.039027,0.1870023608207702,,
128,75987,1-1-001,2024-10-04 23:11:18.168359,eda,1728083360289027,2024-10-04 23:09:20.289027,0.1874090582132339,,
129,75988,1-1-001,2024-10-04 23:11:18.168359,eda,1728083360539027,2024-10-04 23:09:20.539027,0.1866236925125122,,
130,75989,1-1-001,2024-10-04 23:11:18.168359,eda,1728083360789027,2024-10-04 23:09:20.789027,0.1846883296966552,,
131,75990,1-1-001,2024-10-04 23:11:18.168359,eda,1728083361039027,2024-10-04 23:09:21.039027,0.1870865076780319,,
132,75991,1-1-001,2024-10-04 23:11:18.168359,eda,1728083361289027,2024-10-04 23:09:21.289027,0.191910907626152,,
133,75992,1-1-001,2024-10-04 23:11:18.168359,eda,1728083361539027,2024-10-04 23:09:21.539027,0.1875773519277572,,
134,75993,1-1-001,2024-10-04 23:11:18.168359,eda,1728083361789027,2024-10-04 23:09:21.789027,0.1867639422416687,,
135,75994,1-1-001,2024-10-04 23:11:18.168359,eda,1728083362039027,2024-10-04 23:09:22.039027,0.1920511573553085,,
136,75995,1-1-001,2024-10-04 23:11:18.168359,eda,1728083362289027,2024-10-04 23:09:22.289027,0.1939164102077484,,
137,75996,1-1-001,2024-10-04 23:11:18.168359,eda,1728083362539027,2024-10-04 23:09:22.539027,0.1935938447713852,,
138,75997,1-1-001,2024-10-04 23:11:18.168359,eda,1728083362789027,2024-10-04 23:09:22.789027,0.1937340945005417,,
139,75998,1-1-001,2024-10-04 23:11:18.168359,eda,1728083363039027,2024-10-04 23:09:23.039027,0.1936639696359634,,
140,75999,1-1-001,2024-10-04 23:11:18.168359,eda,1728083363289027,2024-10-04 23:09:23.289027,0.1931310445070266,,
141,76000,1-1-001,2024-10-04 23:11:18.168359,eda,1728083363539027,2024-10-04 23:09:23.539027,0.1949682384729385,,
142,76001,1-1-001,2024-10-04 23:11:18.168359,eda,1728083363789027,2024-10-04 23:09:23.789027,0.1941828727722168,,
143,76002,1-1-001,2024-10-04 23:11:18.168359,eda,1728083364039027,2024-10-04 23:09:24.039027,0.1932151913642883,,
144,76003,1-1-001,2024-10-04 23:11:18.168359,eda,1728083364289027,2024-10-04 23:09:24.289027,0.1941407918930053,,
145,76004,1-1-001,2024-10-04 23:11:18.168359,eda,1728083364539027,2024-10-04 23:09:24.539027,0.194603607058525,,
146,76005,1-1-001,2024-10-04 23:11:18.168359,eda,1728083364789027,2024-10-04 23:09:24.789027,0.1924859136343002,,
147,76006,1-1-001,2024-10-04 23:11:18.168359,eda,1728083365039027,2024-10-04 23:09:25.039027,0.190480425953865,,
148,76007,1-1-001,2024-10-04 23:11:18.168359,eda,1728083365289027,2024-10-04 23:09:25.289027,0.1862871050834655,,
149,76008,1-1-001,2024-10-04 23:11:18.168359,eda,1728083365539027,2024-10-04 23:09:25.539027,0.1877035796642303,,
150,76009,1-1-001,2024-10-04 23:11:18.168359,eda,1728083365789027,2024-10-04 23:09:25.789027,0.1871706545352935,,
151,76010,1-1-001,2024-10-04 23:11:18.168359,eda,1728083366039027,2024-10-04 23:09:26.039027,0.186932235956192,,
152,76011,1-1-001,2024-10-04 23:11:18.168359,eda,1728083366289027,2024-10-04 23:09:26.289027,0.1871706545352935,,
153,76012,1-1-001,2024-10-04 23:11:18.168359,eda,1728083366539027,2024-10-04 23:09:26.539027,0.1898633390665054,,
154,76013,1-1-001,2024-10-04 23:11:18.168359,eda,1728083366789027,2024-10-04 23:09:26.789027,0.1895548105239868,,
155,76014,1-1-001,2024-10-04 23:11:18.168359,eda,1728083367039027,2024-10-04 23:09:27.039027,0.184618204832077,,
156,76015,1-1-001,2024-10-04 23:11:18.168359,eda,1728083367289027,2024-10-04 23:09:27.289027,0.1847584396600723,,
157,76016,1-1-001,2024-10-04 23:11:18.168359,eda,1728083367539027,2024-10-04 23:09:27.539027,0.1867639422416687,,
158,76017,1-1-001,2024-10-04 23:11:18.168359,eda,1728083367789027,2024-10-04 23:09:27.789027,0.1868200451135635,,
159,76018,1-1-001,2024-10-04 23:11:18.168359,eda,1728083368039027,2024-10-04 23:09:28.039027,0.1867358982563018,,
160,76019,1-1-001,2024-10-04 23:11:18.168359,eda,1728083368289027,2024-10-04 23:09:28.289027,0.1878999173641204,,
161,76020,1-1-001,2024-10-04 23:11:18.168359,eda,1728083368539027,2024-10-04 23:09:28.539027,0.189344435930252,,
162,76021,1-1-001,2024-10-04 23:11:18.168359,eda,1728083368789027,2024-10-04 23:09:28.789027,0.1874511390924453,,
163,76022,1-1-001,2024-10-04 23:11:18.168359,eda,1728083369039027,2024-10-04 23:09:29.039027,0.1875493079423904,,
164,76023,1-1-001,2024-10-04 23:11:18.168359,eda,1728083369289027,2024-10-04 23:09:29.289027,0.185473695397377,,
165,76024,1-1-001,2024-10-04 23:11:18.168359,eda,1728083369539027,2024-10-04 23:09:29.539027,0.1855999082326889,,
166,76025,1-1-001,2024-10-04 23:11:18.168359,eda,1728083369789027,2024-10-04 23:09:29.789027,0.1867218613624572,,
167,76026,1-1-001,2024-10-04 23:11:18.168359,eda,1728083370039027,2024-10-04 23:09:30.039027,0.1844639331102371,,
168,76027,1-1-001,2024-10-04 23:11:18.168359,eda,1728083370289027,2024-10-04 23:09:30.289027,0.1832578331232071,,
169,76028,1-1-001,2024-10-04 23:11:18.168359,eda,1728083370539027,2024-10-04 23:09:30.539027,0.1832718551158905,,
170,76029,1-1-001,2024-10-04 23:11:18.168359,eda,1728083370789027,2024-10-04 23:09:30.789027,0.1830895394086837,,
171,76030,1-1-001,2024-10-04 23:11:18.168359,eda,1728083371039027,2024-10-04 23:09:31.039027,0.1832017302513122,,
172,76031,1-1-001,2024-10-04 23:11:18.168359,eda,1728083371289027,2024-10-04 23:09:31.289027,0.1833700239658355,,
173,76032,1-1-001,2024-10-04 23:11:18.168359,eda,1728083371539027,2024-10-04 23:09:31.539027,0.1836224645376205,,
174,76033,1-1-001,2024-10-04 23:11:18.168359,eda,1728083371789027,2024-10-04 23:09:31.789027,0.1831736862659454,,
175,76034,1-1-001,2024-10-04 23:11:18.168359,eda,1728083372039027,2024-10-04 23:09:32.039027,0.1824023425579071,,
176,76035,1-1-001,2024-10-04 23:11:18.168359,eda,1728083372289027,2024-10-04 23:09:32.289027,0.1821499019861221,,
177,76036,1-1-001,2024-10-04 23:11:18.168359,eda,1728083372539027,2024-10-04 23:09:32.539027,0.1819114834070205,,
178,76037,1-1-001,2024-10-04 23:11:18.168359,eda,1728083372789027,2024-10-04 23:09:32.789027,0.1816169768571853,,
179,76038,1-1-001,2024-10-04 23:11:18.168359,eda,1728083373039027,2024-10-04 23:09:33.039027,0.1808876991271972,,
180,76039,1-1-001,2024-10-04 23:11:18.168359,eda,1728083373289027,2024-10-04 23:09:33.289027,0.182023674249649,,
181,76040,1-1-001,2024-10-04 23:11:18.168359,eda,1728083373539027,2024-10-04 23:09:33.539027,0.184337705373764,,
182,76041,1-1-001,2024-10-04 23:11:18.168359,eda,1728083373789027,2024-10-04 23:09:33.789027,0.1833980679512024,,
183,76042,1-1-001,2024-10-04 23:11:18.168359,eda,1728083374039027,2024-10-04 23:09:34.039027,0.184590145945549,,
184,76043,1-1-001,2024-10-04 23:11:18.168359,eda,1728083374289027,2024-10-04 23:09:34.289027,0.1843096613883972,,
185,76044,1-1-001,2024-10-04 23:11:18.168359,eda,1728083374539027,2024-10-04 23:09:34.539027,0.187282845377922,,
186,76045,1-1-001,2024-10-04 23:11:18.168359,eda,1728083374789027,2024-10-04 23:09:34.789027,0.1868480890989303,,
187,76046,1-1-001,2024-10-04 23:11:18.168359,eda,1728083375039027,2024-10-04 23:09:35.039027,0.183762714266777,,
188,76047,1-1-001,2024-10-04 23:11:18.168359,eda,1728083375289027,2024-10-04 23:09:35.289027,0.1828511208295822,,
189,76048,1-1-001,2024-10-04 23:11:18.168359,eda,1728083375539027,2024-10-04 23:09:35.539027,0.1835803985595703,,
190,76049,1-1-001,2024-10-04 23:11:18.168359,eda,1728083375789027,2024-10-04 23:09:35.789027,0.1832438111305236,,
191,76050,1-1-001,2024-10-04 23:11:18.168359,eda,1728083376039027,2024-10-04 23:09:36.039027,0.182907223701477,,
192,76051,1-1-001,2024-10-04 23:11:18.168359,eda,1728083376289027,2024-10-04 23:09:36.289027,0.1856980770826339,,
193,76052,1-1-001,2024-10-04 23:11:18.168359,eda,1728083376539027,2024-10-04 23:09:36.539027,0.1842675954103469,,
194,76053,1-1-001,2024-10-04 23:11:18.168359,eda,1728083376789027,2024-10-04 23:09:36.789027,0.1846602708101272,,
195,76054,1-1-001,2024-10-04 23:11:18.168359,eda,1728083377039027,2024-10-04 23:09:37.039027,0.177900493144989,,
196,76055,1-1-001,2024-10-04 23:11:18.168359,eda,1728083377289027,2024-10-04 23:09:37.289027,0.1720803529024124,,
197,76056,1-1-001,2024-10-04 23:11:18.168359,eda,1728083377539027,2024-10-04 23:09:37.539027,0.1714773029088974,,
198,76057,1-1-001,2024-10-04 23:11:18.168359,eda,1728083377789027,2024-10-04 23:09:37.789027,0.1668913066387176,,
199,76058,1-1-001,2024-10-04 23:11:18.168359,eda,1728083378039027,2024-10-04 23:09:38.039027,0.163357138633728,,
200,76059,1-1-001,2024-10-04 23:11:18.168359,eda,1728083378289027,2024-10-04 23:09:38.289027,0.1605662703514099,,
201,76060,1-1-001,2024-10-04 23:11:18.168359,eda,1728083378539027,2024-10-04 23:09:38.539027,0.1594583392143249,,
202,76061,1-1-001,2024-10-04 23:11:18.168359,eda,1728083378789027,2024-10-04 23:09:38.789027,0.1595565229654312,,
203,76062,1-1-001,2024-10-04 23:11:18.168359,eda,1728083379039027,2024-10-04 23:09:39.039027,0.1542412489652633,,
204,76063,1-1-001,2024-10-04 23:11:18.168359,eda,1728083379289027,2024-10-04 23:09:39.289027,0.1521936804056167,,
205,76064,1-1-001,2024-10-04 23:11:18.168359,eda,1728083379539027,2024-10-04 23:09:39.539027,0.1513802707195282,,
206,76065,1-1-001,2024-10-04 23:11:18.168359,eda,1728083379789027,2024-10-04 23:09:39.789027,0.1529930830001831,,
207,76066,1-1-001,2024-10-04 23:11:18.168359,eda,1728083380039027,2024-10-04 23:09:40.039027,0.1638059318065643,,
208,76067,1-1-001,2024-10-04 23:11:18.168359,eda,1728083380289027,2024-10-04 23:09:40.289027,0.1690650880336761,,
209,76068,1-1-001,2024-10-04 23:11:18.168359,eda,1728083380539027,2024-10-04 23:09:40.539027,0.1777462214231491,,
210,76069,1-1-001,2024-10-04 23:11:18.168359,eda,1728083380789027,2024-10-04 23:09:40.789027,0.1815047711133957,,
211,76070,1-1-001,2024-10-04 23:11:18.168359,eda,1728083381039027,2024-10-04 23:09:41.039027,0.1812803894281387,,
212,76071,1-1-001,2024-10-04 23:11:18.168359,eda,1728083381289027,2024-10-04 23:09:41.289027,0.181420624256134,,
213,76072,1-1-001,2024-10-04 23:11:18.168359,eda,1728083381539027,2024-10-04 23:09:41.539027,0.1757687777280807,,
214,76073,1-1-001,2024-10-04 23:11:18.168359,eda,1728083381789027,2024-10-04 23:09:41.789027,0.1794291585683822,,
215,76074,1-1-001,2024-10-04 23:11:18.168359,eda,1728083382039027,2024-10-04 23:09:42.039027,0.1807334274053573,,
216,76075,1-1-001,2024-10-04 23:11:18.168359,eda,1728083382289027,2024-10-04 23:09:42.289027,0.1791907399892807,,
217,76076,1-1-001,2024-10-04 23:11:18.168359,eda,1728083382539027,2024-10-04 23:09:42.539027,0.1788401305675506,,
218,76077,1-1-001,2024-10-04 23:11:18.168359,eda,1728083382789027,2024-10-04 23:09:42.789027,0.1830895394086837,,
219,76078,1-1-001,2024-10-04 23:11:18.168359,eda,1728083383039027,2024-10-04 23:09:43.039027,0.183734655380249,,
220,76079,1-1-001,2024-10-04 23:11:18.168359,eda,1728083383289027,2024-10-04 23:09:43.289027,0.1828090399503708,,
221,76080,1-1-001,2024-10-04 23:11:18.168359,eda,1728083383539027,2024-10-04 23:09:43.539027,0.1829773336648941,,
222,76081,1-1-001,2024-10-04 23:11:18.168359,eda,1728083383789027,2024-10-04 23:09:43.789027,0.1828370988368988,,
223,76082,1-1-001,2024-10-04 23:11:18.168359,eda,1728083384039027,2024-10-04 23:09:44.039027,0.182879164814949,,
224,76083,1-1-001,2024-10-04 23:11:18.168359,eda,1728083384289027,2024-10-04 23:09:44.289027,0.1834261268377304,,
225,76084,1-1-001,2024-10-04 23:11:18.168359,eda,1728083384539027,2024-10-04 23:09:44.539027,0.1863712519407272,,
226,76085,1-1-001,2024-10-04 23:11:18.168359,eda,1728083384789027,2024-10-04 23:09:44.789027,0.1875773519277572,,
227,76086,1-1-001,2024-10-04 23:11:18.168359,eda,1728083385039027,2024-10-04 23:09:45.039027,0.1860206425189972,,
228,76087,1-1-001,2024-10-04 23:11:18.168359,eda,1728083385289027,2024-10-04 23:09:45.289027,0.1850669831037521,,
229,76088,1-1-001,2024-10-04 23:11:18.168359,eda,1728083385539027,2024-10-04 23:09:45.539027,0.1816450208425521,,
230,76089,1-1-001,2024-10-04 23:11:18.168359,eda,1728083385789027,2024-10-04 23:09:45.789027,0.1790224462747573,,
231,76090,1-1-001,2024-10-04 23:11:18.168359,eda,1728083386039027,2024-10-04 23:09:46.039027,0.1786157339811325,,
232,76091,1-1-001,2024-10-04 23:11:18.168359,eda,1728083386289027,2024-10-04 23:09:46.289027,0.179457202553749,,
233,76092,1-1-001,2024-10-04 23:11:18.168359,eda,1728083386539027,2024-10-04 23:09:46.539027,0.1769047528505325,,
234,76093,1-1-001,2024-10-04 23:11:18.168359,eda,1728083386789027,2024-10-04 23:09:46.789027,0.1777181774377823,,
235,76094,1-1-001,2024-10-04 23:11:18.168359,eda,1728083387039027,2024-10-04 23:09:47.039027,0.1772553622722625,,
236,76095,1-1-001,2024-10-04 23:11:18.168359,eda,1728083387289027,2024-10-04 23:09:47.289027,0.1771291494369506,,
237,76096,1-1-001,2024-10-04 23:11:18.168359,eda,1728083387539027,2024-10-04 23:09:47.539027,0.1778023242950439,,
238,76097,1-1-001,2024-10-04 23:11:18.168359,eda,1728083387789027,2024-10-04 23:09:47.789027,0.1786998808383941,,
239,76098,1-1-001,2024-10-04 23:11:18.168359,eda,1728083388039027,2024-10-04 23:09:48.039027,0.1786998808383941,,
240,76099,1-1-001,2024-10-04 23:11:18.168359,eda,1728083388289027,2024-10-04 23:09:48.289027,0.1809017211198806,,
241,76100,1-1-001,2024-10-04 23:11:18.168359,eda,1728083388539027,2024-10-04 23:09:48.539027,0.1807334274053573,,
242,76101,1-1-001,2024-10-04 23:11:18.168359,eda,1728083388789027,2024-10-04 23:09:48.789027,0.1802846491336822,,
243,76102,1-1-001,2024-10-04 23:11:18.168359,eda,1728083389039027,2024-10-04 23:09:49.039027,0.1783212274312973,,
244,76103,1-1-001,2024-10-04 23:11:18.168359,eda,1728083389289027,2024-10-04 23:09:49.289027,0.1792047619819641,,
245,76104,1-1-001,2024-10-04 23:11:18.168359,eda,1728083389539027,2024-10-04 23:09:49.539027,0.1810559928417205,,
246,76105,1-1-001,2024-10-04 23:11:18.168359,eda,1728083389789027,2024-10-04 23:09:49.789027,0.1856840550899505,,
247,76106,1-1-001,2024-10-04 23:11:18.168359,eda,1728083390039027,2024-10-04 23:09:50.039027,0.1842675954103469,,
248,76107,1-1-001,2024-10-04 23:11:18.168359,eda,1728083390289027,2024-10-04 23:09:50.289027,0.1848285645246505,,
249,76108,1-1-001,2024-10-04 23:11:18.168359,eda,1728083390539027,2024-10-04 23:09:50.539027,0.1850389391183853,,
250,76109,1-1-001,2024-10-04 23:11:18.168359,eda,1728083390789027,2024-10-04 23:09:50.789027,0.1844499111175537,,
251,76110,1-1-001,2024-10-04 23:11:18.168359,eda,1728083391039027,2024-10-04 23:09:51.039027,0.1828230768442154,,
252,76111,1-1-001,2024-10-04 23:11:18.168359,eda,1728083391289027,2024-10-04 23:09:51.289027,0.1836364865303039,,
253,76112,1-1-001,2024-10-04 23:11:18.168359,eda,1728083391539027,2024-10-04 23:09:51.539027,0.1836925894021988,,
254,76113,1-1-001,2024-10-04 23:11:18.168359,eda,1728083391789027,2024-10-04 23:09:51.789027,0.1836785674095153,,
255,76114,1-1-001,2024-10-04 23:11:18.168359,eda,1728083392039027,2024-10-04 23:09:52.039027,0.1848285645246505,,
256,76115,1-1-001,2024-10-04 23:11:18.168359,eda,1728083392289027,2024-10-04 23:09:52.289027,0.183482214808464,,
257,76116,1-1-001,2024-10-04 23:11:18.168359,eda,1728083392539027,2024-10-04 23:09:52.539027,0.1827809959650039,,
258,76117,1-1-001,2024-10-04 23:11:18.168359,eda,1728083392789027,2024-10-04 23:09:52.789027,0.1822480708360672,,
259,76118,1-1-001,2024-10-04 23:11:18.168359,eda,1728083393039027,2024-10-04 23:09:53.039027,0.1817852556705474,,
260,76119,1-1-001,2024-10-04 23:11:18.168359,eda,1728083393289027,2024-10-04 23:09:53.289027,0.1811401396989822,,
261,76120,1-1-001,2024-10-04 23:11:18.168359,eda,1728083393539027,2024-10-04 23:09:53.539027,0.1819114834070205,,
262,76121,1-1-001,2024-10-04 23:11:18.168359,eda,1728083393789027,2024-10-04 23:09:53.789027,0.1833560019731521,,
263,76122,1-1-001,2024-10-04 23:11:18.168359,eda,1728083394039027,2024-10-04 23:09:54.039027,0.1839730739593505,,
264,76123,1-1-001,2024-10-04 23:11:18.168359,eda,1728083394289027,2024-10-04 23:09:54.289027,0.1826688051223755,,
265,76124,1-1-001,2024-10-04 23:11:18.168359,eda,1728083394539027,2024-10-04 23:09:54.539027,0.1801303774118423,,
266,76125,1-1-001,2024-10-04 23:11:18.168359,eda,1728083394789027,2024-10-04 23:09:54.789027,0.1807474493980407,,
267,76126,1-1-001,2024-10-04 23:11:18.168359,eda,1728083395039027,2024-10-04 23:09:55.039027,0.1779425591230392,,
268,76127,1-1-001,2024-10-04 23:11:18.168359,eda,1728083395289027,2024-10-04 23:09:55.289027,0.1830474585294723,,
269,76128,1-1-001,2024-10-04 23:11:18.168359,eda,1728083395539027,2024-10-04 23:09:55.539027,0.1850249022245407,,
270,76129,1-1-001,2024-10-04 23:11:18.168359,eda,1728083395789027,2024-10-04 23:09:55.789027,0.1798358708620071,,
271,76130,1-1-001,2024-10-04 23:11:18.168359,eda,1728083396039027,2024-10-04 23:09:56.039027,0.1775078028440475,,
272,76131,1-1-001,2024-10-04 23:11:18.168359,eda,1728083396289027,2024-10-04 23:09:56.289027,0.1740577965974807,,
273,76132,1-1-001,2024-10-04 23:11:18.168359,eda,1728083396539027,2024-10-04 23:09:56.539027,0.1733846217393875,,
274,76133,1-1-001,2024-10-04 23:11:18.168359,eda,1728083396789027,2024-10-04 23:09:56.789027,0.1722907125949859,,
275,76134,1-1-001,2024-10-04 23:11:18.168359,eda,1728083397039027,2024-10-04 23:09:57.039027,0.1708882749080658,,
276,76135,1-1-001,2024-10-04 23:11:18.168359,eda,1728083397289027,2024-10-04 23:09:57.289027,0.1708882749080658,,
277,76136,1-1-001,2024-10-04 23:11:18.168359,eda,1728083397539027,2024-10-04 23:09:57.539027,0.1708321720361709,,
278,76137,1-1-001,2024-10-04 23:11:18.168359,eda,1728083397789027,2024-10-04 23:09:57.789027,0.1679010689258575,,
279,76138,1-1-001,2024-10-04 23:11:18.168359,eda,1728083398039027,2024-10-04 23:09:58.039027,0.1696260720491409,,
280,76139,1-1-001,2024-10-04 23:11:18.168359,eda,1728083398289027,2024-10-04 23:09:58.289027,0.1644790917634964,,
281,76140,1-1-001,2024-10-04 23:11:18.168359,eda,1728083398539027,2024-10-04 23:09:58.539027,0.163132756948471,,
282,76141,1-1-001,2024-10-04 23:11:18.168359,eda,1728083398789027,2024-10-04 23:09:58.789027,0.1625998169183731,,
283,76142,1-1-001,2024-10-04 23:11:18.168359,eda,1728083399039027,2024-10-04 23:09:59.039027,0.1624876260757446,,
284,76143,1-1-001,2024-10-04 23:11:18.168359,eda,1728083399289027,2024-10-04 23:09:59.289027,0.1617723852396011,,
285,76144,1-1-001,2024-10-04 23:11:18.168359,eda,1728083399539027,2024-10-04 23:09:59.539027,0.1631748229265213,,
286,76145,1-1-001,2024-10-04 23:11:18.168359,eda,1728083399789027,2024-10-04 23:09:59.789027,0.1628803163766861,,
287,76146,1-1-001,2024-10-04 23:11:18.168359,eda,1728083400039027,2024-10-04 23:10:00.039027,0.1620528697967529,,
288,76147,1-1-001,2024-10-04 23:11:18.168359,eda,1728083400289027,2024-10-04 23:10:00.289027,0.1617723852396011,,
289,76148,1-1-001,2024-10-04 23:11:18.168359,eda,1728083400539027,2024-10-04 23:10:00.539027,0.1649839729070663,,
290,76149,1-1-001,2024-10-04 23:11:18.168359,eda,1728083400789027,2024-10-04 23:10:00.789027,0.1680553257465362,,
291,76150,1-1-001,2024-10-04 23:11:18.168359,eda,1728083401039027,2024-10-04 23:10:01.039027,0.168868750333786,,
292,76151,1-1-001,2024-10-04 23:11:18.168359,eda,1728083401289027,2024-10-04 23:10:01.289027,0.1707900911569595,,
293,76152,1-1-001,2024-10-04 23:11:18.168359,eda,1728083401539027,2024-10-04 23:10:01.539027,0.1683358252048492,,
294,76153,1-1-001,2024-10-04 23:11:18.168359,eda,1728083401789027,2024-10-04 23:10:01.789027,0.1673961877822876,,
295,76154,1-1-001,2024-10-04 23:11:18.168359,eda,1728083402039027,2024-10-04 23:10:02.039027,0.1672699600458145,,
296,76155,1-1-001,2024-10-04 23:11:18.168359,eda,1728083402289027,2024-10-04 23:10:02.289027,0.168265700340271,,
297,76156,1-1-001,2024-10-04 23:11:18.168359,eda,1728083402539027,2024-10-04 23:10:02.539027,0.1694858223199844,,
298,76157,1-1-001,2024-10-04 23:11:18.168359,eda,1728083402789027,2024-10-04 23:10:02.789027,0.1702992469072342,,
299,76158,1-1-001,2024-10-04 23:11:18.168359,eda,1728083403039027,2024-10-04 23:10:03.039027,0.1702711880207061,,
300,76159,1-1-001,2024-10-04 23:11:18.168359,eda,1728083403289027,2024-10-04 23:10:03.289027,0.1708181500434875,,
301,76160,1-1-001,2024-10-04 23:11:18.168359,eda,1728083403539027,2024-10-04 23:10:03.539027,0.1681114286184311,,
302,76161,1-1-001,2024-10-04 23:11:18.168359,eda,1728083403789027,2024-10-04 23:10:03.789027,0.1686583757400512,,
303,76162,1-1-001,2024-10-04 23:11:18.168359,eda,1728083404039027,2024-10-04 23:10:04.039027,0.1678589880466461,,
304,76163,1-1-001,2024-10-04 23:11:18.168359,eda,1728083404289027,2024-10-04 23:10:04.289027,0.1679291129112243,,
305,76164,1-1-001,2024-10-04 23:11:18.168359,eda,1728083404539027,2024-10-04 23:10:04.539027,0.1678169220685959,,
306,76165,1-1-001,2024-10-04 23:11:18.168359,eda,1728083404789027,2024-10-04 23:10:04.789027,0.166526660323143,,
307,76166,1-1-001,2024-10-04 23:11:18.168359,eda,1728083405039027,2024-10-04 23:10:05.039027,0.1669894754886627,,
308,76167,1-1-001,2024-10-04 23:11:18.168359,eda,1728083405289027,2024-10-04 23:10:05.289027,0.1683919131755828,,
309,76168,1-1-001,2024-10-04 23:11:18.168359,eda,1728083405539027,2024-10-04 23:10:05.539027,0.1690230220556259,,
310,76169,1-1-001,2024-10-04 23:11:18.168359,eda,1728083405789027,2024-10-04 23:10:05.789027,0.167760819196701,,
311,76170,1-1-001,2024-10-04 23:11:18.168359,eda,1728083406039027,2024-10-04 23:10:06.039027,0.1679431349039077,,
312,76171,1-1-001,2024-10-04 23:11:18.168359,eda,1728083406289027,2024-10-04 23:10:06.289027,0.1695138663053512,,
313,76172,1-1-001,2024-10-04 23:11:18.168359,eda,1728083406539027,2024-10-04 23:10:06.539027,0.1690931469202041,,
314,76173,1-1-001,2024-10-04 23:11:18.168359,eda,1728083406789027,2024-10-04 23:10:06.789027,0.1687846034765243,,
315,76174,1-1-001,2024-10-04 23:11:18.168359,eda,1728083407039027,2024-10-04 23:10:07.039027,0.1681114286184311,,
316,76175,1-1-001,2024-10-04 23:11:18.168359,eda,1728083407289027,2024-10-04 23:10:07.289027,0.1689388751983642,,
317,76176,1-1-001,2024-10-04 23:11:18.168359,eda,1728083407539027,2024-10-04 23:10:07.539027,0.1706077754497528,,
318,76177,1-1-001,2024-10-04 23:11:18.168359,eda,1728083407789027,2024-10-04 23:10:07.789027,0.1714071780443191,,
319,76178,1-1-001,2024-10-04 23:11:18.168359,eda,1728083408039027,2024-10-04 23:10:08.039027,0.1717998534440994,,
320,76179,1-1-001,2024-10-04 23:11:18.168359,eda,1728083408289027,2024-10-04 23:10:08.289027,0.1731041371822357,,
321,76180,1-1-001,2024-10-04 23:11:18.168359,eda,1728083408539027,2024-10-04 23:10:08.539027,0.1748571842908859,,
322,76181,1-1-001,2024-10-04 23:11:18.168359,eda,1728083408789027,2024-10-04 23:10:08.789027,0.1787419617176056,,
323,76182,1-1-001,2024-10-04 23:11:18.168359,eda,1728083409039027,2024-10-04 23:10:09.039027,0.1792047619819641,,
324,76183,1-1-001,2024-10-04 23:11:18.168359,eda,1728083409289027,2024-10-04 23:10:09.289027,0.176540121436119,,
325,76184,1-1-001,2024-10-04 23:11:18.168359,eda,1728083409539027,2024-10-04 23:10:09.539027,0.1762315779924392,,
326,76185,1-1-001,2024-10-04 23:11:18.168359,eda,1728083409789027,2024-10-04 23:10:09.789027,0.1730480343103408,,
327,76186,1-1-001,2024-10-04 23:11:18.168359,eda,1728083410039027,2024-10-04 23:10:10.039027,0.1750675588846206,,
328,76187,1-1-001,2024-10-04 23:11:18.168359,eda,1728083410289027,2024-10-04 23:10:10.289027,0.1747730374336242,,
329,76188,1-1-001,2024-10-04 23:11:18.168359,eda,1728083410539027,2024-10-04 23:10:10.539027,0.1775919497013092,,
330,76189,1-1-001,2024-10-04 23:11:18.168359,eda,1728083410789027,2024-10-04 23:10:10.789027,0.1748852431774139,,
331,76190,1-1-001,2024-10-04 23:11:18.168359,eda,1728083411039027,2024-10-04 23:10:11.039027,0.1787139028310775,,
332,76191,1-1-001,2024-10-04 23:11:18.168359,eda,1728083411289027,2024-10-04 23:10:11.289027,0.1807474493980407,,
333,76192,1-1-001,2024-10-04 23:11:18.168359,eda,1728083411539027,2024-10-04 23:10:11.539027,0.1792889088392257,,
334,76193,1-1-001,2024-10-04 23:11:18.168359,eda,1728083411789027,2024-10-04 23:10:11.789027,0.1669473946094513,,
335,76194,1-1-001,2024-10-04 23:11:18.168359,eda,1728083412039027,2024-10-04 23:10:12.039027,0.1664705723524093,,
336,76195,1-1-001,2024-10-04 23:11:18.168359,eda,1728083412289027,2024-10-04 23:10:12.289027,0.1664565503597259,,
337,76196,1-1-001,2024-10-04 23:11:18.168359,eda,1728083412539027,2024-10-04 23:10:12.539027,0.1665967851877212,,
338,76197,1-1-001,2024-10-04 23:11:18.168359,eda,1728083412789027,2024-10-04 23:10:12.789027,0.1657973974943161,,
339,76198,1-1-001,2024-10-04 23:11:18.168359,eda,1728083413039027,2024-10-04 23:10:13.039027,0.1698644906282425,,
340,76199,1-1-001,2024-10-04 23:11:18.168359,eda,1728083413289027,2024-10-04 23:10:13.289027,0.1715053468942642,,
341,76200,1-1-001,2024-10-04 23:11:18.168359,eda,1728083413539027,2024-10-04 23:10:13.539027,0.1693455874919891,,
342,76201,1-1-001,2024-10-04 23:11:18.168359,eda,1728083413789027,2024-10-04 23:10:13.789027,0.1670736223459243,,
343,76202,1-1-001,2024-10-04 23:11:18.168359,eda,1728083414039027,2024-10-04 23:10:14.039027,0.149697333574295,,
344,76203,1-1-001,2024-10-04 23:11:18.168359,eda,1728083414289027,2024-10-04 23:10:14.289027,0.1524882018566131,,
345,76204,1-1-001,2024-10-04 23:11:18.168359,eda,1728083414539027,2024-10-04 23:10:14.539027,0.1529229581356048,,
346,76205,1-1-001,2024-10-04 23:11:18.168359,eda,1728083414789027,2024-10-04 23:10:14.789027,0.1533997803926468,,
347,76206,1-1-001,2024-10-04 23:11:18.168359,eda,1728083415039027,2024-10-04 23:10:15.039027,0.1544095426797866,,
348,76207,1-1-001,2024-10-04 23:11:18.168359,eda,1728083415289027,2024-10-04 23:10:15.289027,0.1582522392272949,,
349,76208,1-1-001,2024-10-04 23:11:18.168359,eda,1728083415539027,2024-10-04 23:10:15.539027,0.1663163006305694,,
350,76209,1-1-001,2024-10-04 23:11:18.168359,eda,1728083415789027,2024-10-04 23:10:15.789027,0.1702852249145507,,
351,76210,1-1-001,2024-10-04 23:11:18.168359,eda,1728083416039027,2024-10-04 23:10:16.039027,0.1712529063224792,,
352,76211,1-1-001,2024-10-04 23:11:18.168359,eda,1728083416289027,2024-10-04 23:10:16.289027,0.1727815717458725,,
353,76212,1-1-001,2024-10-04 23:11:18.168359,eda,1728083416539027,2024-10-04 23:10:16.539027,0.1732023060321808,,
354,76213,1-1-001,2024-10-04 23:11:18.168359,eda,1728083416789027,2024-10-04 23:10:16.789027,0.1723608374595642,,
355,76214,1-1-001,2024-10-04 23:11:18.168359,eda,1728083417039027,2024-10-04 23:10:17.039027,0.1732864528894424,,
356,76215,1-1-001,2024-10-04 23:11:18.168359,eda,1728083417289027,2024-10-04 23:10:17.289027,0.1718419343233108,,
357,76216,1-1-001,2024-10-04 23:11:18.168359,eda,1728083417539027,2024-10-04 23:10:17.539027,0.1777883023023605,,
358,76217,1-1-001,2024-10-04 23:11:18.168359,eda,1728083417789027,2024-10-04 23:10:17.789027,0.1795133054256439,,
359,76218,1-1-001,2024-10-04 23:11:18.168359,eda,1728083418039027,2024-10-04 23:10:18.039027,0.1806492805480957,,
360,76219,1-1-001,2024-10-04 23:11:18.168359,eda,1728083418289027,2024-10-04 23:10:18.289027,0.1798358708620071,,
361,76220,1-1-001,2024-10-04 23:11:18.168359,eda,1728083418539027,2024-10-04 23:10:18.539027,0.1772273182868957,,
362,76221,1-1-001,2024-10-04 23:11:18.168359,eda,1728083418789027,2024-10-04 23:10:18.789027,0.1804669648408889,,
363,76222,1-1-001,2024-10-04 23:11:18.168359,eda,1728083419039027,2024-10-04 23:10:19.039027,0.1819535493850708,,
364,76223,1-1-001,2024-10-04 23:11:18.168359,eda,1728083419289027,2024-10-04 23:10:19.289027,0.1806072145700454,,
365,76224,1-1-001,2024-10-04 23:11:18.168359,eda,1728083419539027,2024-10-04 23:10:19.539027,0.180817574262619,,
366,76225,1-1-001,2024-10-04 23:11:18.168359,eda,1728083419789027,2024-10-04 23:10:19.789027,0.181420624256134,,
367,76226,1-1-001,2024-10-04 23:11:18.168359,eda,1728083420039027,2024-10-04 23:10:20.039027,0.1806773245334625,,
368,76227,1-1-001,2024-10-04 23:11:18.168359,eda,1728083420289027,2024-10-04 23:10:20.289027,0.1843797862529754,,
369,76228,1-1-001,2024-10-04 23:11:18.168359,eda,1728083420539027,2024-10-04 23:10:20.539027,0.1846041828393936,,
370,76229,1-1-001,2024-10-04 23:11:18.168359,eda,1728083420789027,2024-10-04 23:10:20.789027,0.1818413585424423,,
371,76230,1-1-001,2024-10-04 23:11:18.168359,eda,1728083421039027,2024-10-04 23:10:21.039027,0.1794431805610656,,
372,76231,1-1-001,2024-10-04 23:11:18.168359,eda,1728083421289027,2024-10-04 23:10:21.289027,0.1806913614273071,,
373,76232,1-1-001,2024-10-04 23:11:18.168359,eda,1728083421539027,2024-10-04 23:10:21.539027,0.1793870776891708,,
374,76233,1-1-001,2024-10-04 23:11:18.168359,eda,1728083421789027,2024-10-04 23:10:21.789027,0.1807755082845688,,
375,76234,1-1-001,2024-10-04 23:11:18.168359,eda,1728083422039027,2024-10-04 23:10:22.039027,0.1806212365627288,,
376,76235,1-1-001,2024-10-04 23:11:18.168359,eda,1728083422289027,2024-10-04 23:10:22.289027,0.1798779368400573,,
377,76236,1-1-001,2024-10-04 23:11:18.168359,eda,1728083422539027,2024-10-04 23:10:22.539027,0.1777602434158325,,
378,76237,1-1-001,2024-10-04 23:11:18.168359,eda,1728083422789027,2024-10-04 23:10:22.789027,0.1784754991531372,,
379,76238,1-1-001,2024-10-04 23:11:18.168359,eda,1728083423039027,2024-10-04 23:10:23.039027,0.1781669557094574,,
380,76239,1-1-001,2024-10-04 23:11:18.168359,eda,1728083423289027,2024-10-04 23:10:23.289027,0.1787840276956558,,
381,76240,1-1-001,2024-10-04 23:11:18.168359,eda,1728083423539027,2024-10-04 23:10:23.539027,0.1804950088262558,,
382,76241,1-1-001,2024-10-04 23:11:18.168359,eda,1728083423789027,2024-10-04 23:10:23.789027,0.1798218339681625,,
383,76242,1-1-001,2024-10-04 23:11:18.168359,eda,1728083424039027,2024-10-04 23:10:24.039027,0.1801303774118423,,
384,76243,1-1-001,2024-10-04 23:11:18.168359,eda,1728083424289027,2024-10-04 23:10:24.289027,0.1807614713907241,,
385,76244,1-1-001,2024-10-04 23:11:18.168359,eda,1728083424539027,2024-10-04 23:10:24.539027,0.1812523305416107,,
386,76245,1-1-001,2024-10-04 23:11:18.168359,eda,1728083424789027,2024-10-04 23:10:24.789027,0.1809157431125641,,
387,76246,1-1-001,2024-10-04 23:11:18.168359,eda,1728083425039027,2024-10-04 23:10:25.039027,0.1809998899698257,,
388,76247,1-1-001,2024-10-04 23:11:18.168359,eda,1728083425289027,2024-10-04 23:10:25.289027,0.181168183684349,,
389,76248,1-1-001,2024-10-04 23:11:18.168359,eda,1728083425539027,2024-10-04 23:10:25.539027,0.1806633025407791,,
390,76249,1-1-001,2024-10-04 23:11:18.168359,eda,1728083425789027,2024-10-04 23:10:25.789027,0.1808456182479858,,
391,76250,1-1-001,2024-10-04 23:11:18.168359,eda,1728083426039027,2024-10-04 23:10:26.039027,0.1815608739852905,,
392,76251,1-1-001,2024-10-04 23:11:18.168359,eda,1728083426289027,2024-10-04 23:10:26.289027,0.1804809868335724,,
393,76252,1-1-001,2024-10-04 23:11:18.168359,eda,1728083426539027,2024-10-04 23:10:26.539027,0.1809718459844589,,
394,76253,1-1-001,2024-10-04 23:11:18.168359,eda,1728083426789027,2024-10-04 23:10:26.789027,0.1800742745399475,,
395,76254,1-1-001,2024-10-04 23:11:18.168359,eda,1728083427039027,2024-10-04 23:10:27.039027,0.1800602525472641,,
396,76255,1-1-001,2024-10-04 23:11:18.168359,eda,1728083427289027,2024-10-04 23:10:27.289027,0.1813504993915558,,
397,76256,1-1-001,2024-10-04 23:11:18.168359,eda,1728083427539027,2024-10-04 23:10:27.539027,0.1809017211198806,,
398,76257,1-1-001,2024-10-04 23:11:18.168359,eda,1728083427789027,2024-10-04 23:10:27.789027,0.1806773245334625,,
399,76258,1-1-001,2024-10-04 23:11:18.168359,eda,1728083428039027,2024-10-04 23:10:28.039027,0.1905926167964935,,
400,76259,1-1-001,2024-10-04 23:11:18.168359,eda,1728083428289027,2024-10-04 23:10:28.289027,0.193874329328537,,
401,76260,1-1-001,2024-10-04 23:11:18.168359,eda,1728083428539027,2024-10-04 23:10:28.539027,0.1960481256246566,,
402,76261,1-1-001,2024-10-04 23:11:18.168359,eda,1728083428789027,2024-10-04 23:10:28.789027,0.1895828545093536,,
403,76262,1-1-001,2024-10-04 23:11:18.168359,eda,1728083429039027,2024-10-04 23:10:29.039027,0.1778443902730941,,
404,76263,1-1-001,2024-10-04 23:11:18.168359,eda,1728083429289027,2024-10-04 23:10:29.289027,0.1795834302902221,,
405,76264,1-1-001,2024-10-04 23:11:18.168359,eda,1728083429539027,2024-10-04 23:10:29.539027,0.1908310353755951,,
406,76265,1-1-001,2024-10-04 23:11:18.168359,eda,1728083429789027,2024-10-04 23:10:29.789027,0.2853557765483856,,
407,76266,1-1-001,2024-10-04 23:11:18.168359,eda,1728083430039027,2024-10-04 23:10:30.039027,0.2739819586277008,,
408,76267,1-1-001,2024-10-04 23:11:18.168359,eda,1728083430289027,2024-10-04 23:10:30.289027,0.2400287836790084,,
409,76268,1-1-001,2024-10-04 23:11:18.168359,eda,1728083430539027,2024-10-04 23:10:30.539027,0.2195530980825424,,
410,76269,1-1-001,2024-10-04 23:11:18.168359,eda,1728083430789027,2024-10-04 23:10:30.789027,0.2058652341365814,,
411,76270,1-1-001,2024-10-04 23:11:18.168359,eda,1728083431039027,2024-10-04 23:10:31.039027,0.1973664164543151,,
412,76271,1-1-001,2024-10-04 23:11:18.168359,eda,1728083431289027,2024-10-04 23:10:31.289027,0.1927523761987686,,
413,76272,1-1-001,2024-10-04 23:11:18.168359,eda,1728083431539027,2024-10-04 23:10:31.539027,0.1876474767923355,,
414,76273,1-1-001,2024-10-04 23:11:18.168359,eda,1728083431789027,2024-10-04 23:10:31.789027,0.1897371262311935,,
415,76274,1-1-001,2024-10-04 23:11:18.168359,eda,1728083432039027,2024-10-04 23:10:32.039027,0.1864974796772003,,
416,76275,1-1-001,2024-10-04 23:11:18.168359,eda,1728083432289027,2024-10-04 23:10:32.289027,0.1846322268247604,,
417,76276,1-1-001,2024-10-04 23:11:18.168359,eda,1728083432539027,2024-10-04 23:10:32.539027,0.1813364773988723,,
418,76277,1-1-001,2024-10-04 23:11:18.168359,eda,1728083432789027,2024-10-04 23:10:32.789027,0.181448683142662,,
419,76278,1-1-001,2024-10-04 23:11:18.168359,eda,1728083433039027,2024-10-04 23:10:33.039027,0.1807614713907241,,
420,76279,1-1-001,2024-10-04 23:11:18.168359,eda,1728083433289027,2024-10-04 23:10:33.289027,0.179106593132019,,
421,76280,1-1-001,2024-10-04 23:11:18.168359,eda,1728083433539027,2024-10-04 23:10:33.539027,0.178755983710289,,
422,76281,1-1-001,2024-10-04 23:11:18.168359,eda,1728083433789027,2024-10-04 23:10:33.789027,0.1772834211587906,,
423,76282,1-1-001,2024-10-04 23:11:18.168359,eda,1728083434039027,2024-10-04 23:10:34.039027,0.1761334091424942,,
424,76283,1-1-001,2024-10-04 23:11:18.168359,eda,1728083434289027,2024-10-04 23:10:34.289027,0.1740016937255859,,
425,76284,1-1-001,2024-10-04 23:11:18.168359,eda,1728083434539027,2024-10-04 23:10:34.539027,0.1725010871887207,,
426,76285,1-1-001,2024-10-04 23:11:18.168359,eda,1728083434789027,2024-10-04 23:10:34.789027,0.1719681471586227,,
427,76286,1-1-001,2024-10-04 23:11:18.168359,eda,1728083435039027,2024-10-04 23:10:35.039027,0.171280950307846,,
428,76287,1-1-001,2024-10-04 23:11:18.168359,eda,1728083435289027,2024-10-04 23:10:35.289027,0.1699065566062927,,
429,76288,1-1-001,2024-10-04 23:11:18.168359,eda,1728083435539027,2024-10-04 23:10:35.539027,0.1697663068771362,,
430,76289,1-1-001,2024-10-04 23:11:18.168359,eda,1728083435789027,2024-10-04 23:10:35.789027,0.1684900820255279,,
431,76290,1-1-001,2024-10-04 23:11:18.168359,eda,1728083436039027,2024-10-04 23:10:36.039027,0.1657693535089492,,
432,76291,1-1-001,2024-10-04 23:11:18.168359,eda,1728083436289027,2024-10-04 23:10:36.289027,0.164493128657341,,
433,76292,1-1-001,2024-10-04 23:11:18.168359,eda,1728083436539027,2024-10-04 23:10:36.539027,0.1631888449192047,,
434,76293,1-1-001,2024-10-04 23:11:18.168359,eda,1728083436789027,2024-10-04 23:10:36.789027,0.1635254323482513,,
435,76294,1-1-001,2024-10-04 23:11:18.168359,eda,1728083437039027,2024-10-04 23:10:37.039027,0.1642547100782394,,
436,76295,1-1-001,2024-10-04 23:11:18.168359,eda,1728083437289027,2024-10-04 23:10:37.289027,0.1656571477651596,,
437,76296,1-1-001,2024-10-04 23:11:18.168359,eda,1728083437539027,2024-10-04 23:10:37.539027,0.163735806941986,,
438,76297,1-1-001,2024-10-04 23:11:18.168359,eda,1728083437789027,2024-10-04 23:10:37.789027,0.1627821326255798,,
439,76298,1-1-001,2024-10-04 23:11:18.168359,eda,1728083438039027,2024-10-04 23:10:38.039027,0.1623473763465881,,
440,76299,1-1-001,2024-10-04 23:11:18.168359,eda,1728083438289027,2024-10-04 23:10:38.289027,0.1624595820903778,,
441,76300,1-1-001,2024-10-04 23:11:18.168359,eda,1728083438539027,2024-10-04 23:10:38.539027,0.1655028760433197,,
442,76301,1-1-001,2024-10-04 23:11:18.168359,eda,1728083438789027,2024-10-04 23:10:38.789027,0.1662601977586746,,
443,76302,1-1-001,2024-10-04 23:11:18.168359,eda,1728083439039027,2024-10-04 23:10:39.039027,0.1671858131885528,,
444,76303,1-1-001,2024-10-04 23:11:18.168359,eda,1728083439289027,2024-10-04 23:10:39.289027,0.1692614406347274,,
445,76304,1-1-001,2024-10-04 23:11:18.168359,eda,1728083439539027,2024-10-04 23:10:39.539027,0.1720803529024124,,
446,76305,1-1-001,2024-10-04 23:11:18.168359,eda,1728083439789027,2024-10-04 23:10:39.789027,0.1716315597295761,,
447,76306,1-1-001,2024-10-04 23:11:18.168359,eda,1728083440039027,2024-10-04 23:10:40.039027,0.1797517240047454,,
448,76307,1-1-001,2024-10-04 23:11:18.168359,eda,1728083440289027,2024-10-04 23:10:40.289027,0.1787279397249221,,
449,76308,1-1-001,2024-10-04 23:11:18.168359,eda,1728083440539027,2024-10-04 23:10:40.539027,0.178152933716774,,
450,76309,1-1-001,2024-10-04 23:11:18.168359,eda,1728083440789027,2024-10-04 23:10:40.789027,0.178251102566719,,
451,76310,1-1-001,2024-10-04 23:11:18.168359,eda,1728083441039027,2024-10-04 23:10:41.039027,0.1786718368530273,,
452,76311,1-1-001,2024-10-04 23:11:18.168359,eda,1728083441289027,2024-10-04 23:10:41.289027,0.1908590793609619,,
453,76312,1-1-001,2024-10-04 23:11:18.168359,eda,1728083441539027,2024-10-04 23:10:41.539027,0.1899054199457168,,
454,76313,1-1-001,2024-10-04 23:11:18.168359,eda,1728083441789027,2024-10-04 23:10:41.789027,0.1825145334005355,,
455,76314,1-1-001,2024-10-04 23:11:18.168359,eda,1728083442039027,2024-10-04 23:10:42.039027,0.1808876991271972,,
456,76315,1-1-001,2024-10-04 23:11:18.168359,eda,1728083442289027,2024-10-04 23:10:42.289027,0.1771571934223175,,
457,76316,1-1-001,2024-10-04 23:11:18.168359,eda,1728083442539027,2024-10-04 23:10:42.539027,0.1775358617305755,,
458,76317,1-1-001,2024-10-04 23:11:18.168359,eda,1728083442789027,2024-10-04 23:10:42.789027,0.1752358525991439,,
459,76318,1-1-001,2024-10-04 23:11:18.168359,eda,1728083443039027,2024-10-04 23:10:43.039027,0.1777883023023605,,
460,76319,1-1-001,2024-10-04 23:11:18.168359,eda,1728083443289027,2024-10-04 23:10:43.289027,0.1742541342973709,,
461,76320,1-1-001,2024-10-04 23:11:18.168359,eda,1728083443539027,2024-10-04 23:10:43.539027,0.1745907217264175,,
462,76321,1-1-001,2024-10-04 23:11:18.168359,eda,1728083443789027,2024-10-04 23:10:43.789027,0.1729358434677124,,
463,76322,1-1-001,2024-10-04 23:11:18.168359,eda,1728083444039027,2024-10-04 23:10:44.039027,0.1729077845811844,,
464,76323,1-1-001,2024-10-04 23:11:18.168359,eda,1728083444289027,2024-10-04 23:10:44.289027,0.1723327934741974,,
465,76324,1-1-001,2024-10-04 23:11:18.168359,eda,1728083444539027,2024-10-04 23:10:44.539027,0.1730340123176574,,
466,76325,1-1-001,2024-10-04 23:11:18.168359,eda,1728083444789027,2024-10-04 23:10:44.789027,0.1723047345876693,,
467,76326,1-1-001,2024-10-04 23:11:18.168359,eda,1728083445039027,2024-10-04 23:10:45.039027,0.1715894937515258,,
468,76327,1-1-001,2024-10-04 23:11:18.168359,eda,1728083445289027,2024-10-04 23:10:45.289027,0.1762315779924392,,
469,76328,1-1-001,2024-10-04 23:11:18.168359,eda,1728083445539027,2024-10-04 23:10:45.539027,0.1804248988628387,,
470,76329,1-1-001,2024-10-04 23:11:18.168359,eda,1728083445789027,2024-10-04 23:10:45.789027,0.1812102645635604,,
471,76330,1-1-001,2024-10-04 23:11:18.168359,eda,1728083446039027,2024-10-04 23:10:46.039027,0.1833840459585189,,
472,76331,1-1-001,2024-10-04 23:11:18.168359,eda,1728083446289027,2024-10-04 23:10:46.289027,0.1797376871109008,,
473,76332,1-1-001,2024-10-04 23:11:18.168359,eda,1728083446539027,2024-10-04 23:10:46.539027,0.1800742745399475,,
474,76333,1-1-001,2024-10-04 23:11:18.168359,eda,1728083446789027,2024-10-04 23:10:46.789027,0.1833980679512024,,
475,76334,1-1-001,2024-10-04 23:11:18.168359,eda,1728083447039027,2024-10-04 23:10:47.039027,0.1838468611240387,,
476,76335,1-1-001,2024-10-04 23:11:18.168359,eda,1728083447289027,2024-10-04 23:10:47.289027,0.1829212456941604,,
477,76336,1-1-001,2024-10-04 23:11:18.168359,eda,1728083447539027,2024-10-04 23:10:47.539027,0.1815889179706573,,
478,76337,1-1-001,2024-10-04 23:11:18.168359,eda,1728083447789027,2024-10-04 23:10:47.789027,0.1796395182609558,,
479,76338,1-1-001,2024-10-04 23:11:18.168359,eda,1728083448039027,2024-10-04 23:10:48.039027,0.1786157339811325,,
480,76339,1-1-001,2024-10-04 23:11:18.168359,eda,1728083448289027,2024-10-04 23:10:48.289027,0.1808035522699356,,
481,76340,1-1-001,2024-10-04 23:11:18.168359,eda,1728083448539027,2024-10-04 23:10:48.539027,0.1784895211458206,,
482,76341,1-1-001,2024-10-04 23:11:18.168359,eda,1728083448789027,2024-10-04 23:10:48.789027,0.1797376871109008,,
483,76342,1-1-001,2024-10-04 23:11:18.168359,eda,1728083449039027,2024-10-04 23:10:49.039027,0.181168183684349,,
484,76343,1-1-001,2024-10-04 23:11:18.168359,eda,1728083449289027,2024-10-04 23:10:49.289027,0.1809578239917755,,
485,76344,1-1-001,2024-10-04 23:11:18.168359,eda,1728083449539027,2024-10-04 23:10:49.539027,0.1807053834199905,,
486,76345,1-1-001,2024-10-04 23:11:18.168359,eda,1728083449789027,2024-10-04 23:10:49.789027,0.180214524269104,,
487,76346,1-1-001,2024-10-04 23:11:18.168359,eda,1728083450039027,2024-10-04 23:10:50.039027,0.1814346462488174,,
488,76347,1-1-001,2024-10-04 23:11:18.168359,eda,1728083450289027,2024-10-04 23:10:50.289027,0.1819114834070205,,
489,76348,1-1-001,2024-10-04 23:11:18.168359,eda,1728083450539027,2024-10-04 23:10:50.539027,0.1804248988628387,,
490,76349,1-1-001,2024-10-04 23:11:18.168359,eda,1728083450789027,2024-10-04 23:10:50.789027,0.1790224462747573,,
491,76350,1-1-001,2024-10-04 23:11:18.168359,eda,1728083451039027,2024-10-04 23:10:51.039027,0.1788261085748672,,
492,76351,1-1-001,2024-10-04 23:11:18.168359,eda,1728083451289027,2024-10-04 23:10:51.289027,0.181070014834404,,
493,76352,1-1-001,2024-10-04 23:11:18.168359,eda,1728083451539027,2024-10-04 23:10:51.539027,0.1800742745399475,,
494,76353,1-1-001,2024-10-04 23:11:18.168359,eda,1728083451789027,2024-10-04 23:10:51.789027,0.179359033703804,,
495,76354,1-1-001,2024-10-04 23:11:18.168359,eda,1728083452039027,2024-10-04 23:10:52.039027,0.1780267059803009,,
496,76355,1-1-001,2024-10-04 23:11:18.168359,eda,1728083452289027,2024-10-04 23:10:52.289027,0.1792748868465423,,
497,76356,1-1-001,2024-10-04 23:11:18.168359,eda,1728083452539027,2024-10-04 23:10:52.539027,0.1799480617046356,,
498,76357,1-1-001,2024-10-04 23:11:18.168359,eda,1728083452789027,2024-10-04 23:10:52.789027,0.1809998899698257,,
499,76358,1-1-001,2024-10-04 23:11:18.168359,eda,1728083453039027,2024-10-04 23:10:53.039027,0.1801724582910537,,
500,76359,1-1-001,2024-10-04 23:11:18.168359,eda,1728083453289027,2024-10-04 23:10:53.289027,0.1811401396989822,,
501,76360,1-1-001,2024-10-04 23:11:18.168359,eda,1728083453539027,2024-10-04 23:10:53.539027,0.1822340488433838,,
502,76361,1-1-001,2024-10-04 23:11:18.168359,eda,1728083453789027,2024-10-04 23:10:53.789027,0.1830755174160003,,
503,76362,1-1-001,2024-10-04 23:11:18.168359,eda,1728083454039027,2024-10-04 23:10:54.039027,0.182654783129692,,
504,76363,1-1-001,2024-10-04 23:11:18.168359,eda,1728083454289027,2024-10-04 23:10:54.289027,0.1817852556705474,,
505,76364,1-1-001,2024-10-04 23:11:18.168359,eda,1728083454539027,2024-10-04 23:10:54.539027,0.1803547739982605,,
506,76365,1-1-001,2024-10-04 23:11:18.168359,eda,1728083454789027,2024-10-04 23:10:54.789027,0.1805230677127838,,
507,76366,1-1-001,2024-10-04 23:11:18.168359,eda,1728083455039027,2024-10-04 23:10:55.039027,0.1801584213972091,,
508,76367,1-1-001,2024-10-04 23:11:18.168359,eda,1728083455289027,2024-10-04 23:10:55.289027,0.1804108619689941,,
509,76368,1-1-001,2024-10-04 23:11:18.168359,eda,1728083455539027,2024-10-04 23:10:55.539027,0.1789663434028625,,
510,76369,1-1-001,2024-10-04 23:11:18.168359,eda,1728083455789027,2024-10-04 23:10:55.789027,0.1793169677257537,,
511,76370,1-1-001,2024-10-04 23:11:18.168359,eda,1728083456039027,2024-10-04 23:10:56.039027,0.1804389208555221,,
512,76371,1-1-001,2024-10-04 23:11:18.168359,eda,1728083456289027,2024-10-04 23:10:56.289027,0.1795693933963775,,
513,76372,1-1-001,2024-10-04 23:11:18.168359,eda,1728083456539027,2024-10-04 23:10:56.539027,0.1833700239658355,,
514,76373,1-1-001,2024-10-04 23:11:18.168359,eda,1728083456789027,2024-10-04 23:10:56.789027,0.1891761422157287,,
515,76374,1-1-001,2024-10-04 23:11:18.168359,eda,1728083457039027,2024-10-04 23:10:57.039027,0.1849407702684402,,
516,76375,1-1-001,2024-10-04 23:11:18.168359,eda,1728083457289027,2024-10-04 23:10:57.289027,0.1845761239528656,,
517,76376,1-1-001,2024-10-04 23:11:18.168359,eda,1728083457539027,2024-10-04 23:10:57.539027,0.1861047893762588,,
518,76377,1-1-001,2024-10-04 23:11:18.168359,eda,1728083457789027,2024-10-04 23:10:57.789027,0.1841834485530853,,
519,76378,1-1-001,2024-10-04 23:11:18.168359,eda,1728083458039027,2024-10-04 23:10:58.039027,0.1818553805351257,,
520,76379,1-1-001,2024-10-04 23:11:18.168359,eda,1728083458289027,2024-10-04 23:10:58.289027,0.1809017211198806,,
521,76380,1-1-001,2024-10-04 23:11:18.168359,eda,1728083458539027,2024-10-04 23:10:58.539027,0.1852913796901703,,
522,76381,1-1-001,2024-10-04 23:11:18.168359,eda,1728083458789027,2024-10-04 23:10:58.789027,0.1849267333745956,,
523,76382,1-1-001,2024-10-04 23:11:18.168359,eda,1728083459039027,2024-10-04 23:10:59.039027,0.1843096613883972,,
524,76383,1-1-001,2024-10-04 23:11:18.168359,eda,1728083459289027,2024-10-04 23:10:59.289027,0.1836645454168319,,
525,76384,1-1-001,2024-10-04 23:11:18.168359,eda,1728083459539027,2024-10-04 23:10:59.539027,0.1859224736690521,,
526,76385,1-1-001,2024-10-04 23:11:18.168359,eda,1728083459789027,2024-10-04 23:10:59.789027,0.1845761239528656,,
527,76386,1-1-001,2024-10-04 23:11:18.168359,eda,1728083460039027,2024-10-04 23:11:00.039027,0.1853334456682205,,
528,76387,1-1-001,2024-10-04 23:11:18.168359,eda,1728083460289027,2024-10-04 23:11:00.289027,0.1855438202619552,,
529,76388,1-1-001,2024-10-04 23:11:18.168359,eda,1728083460539027,2024-10-04 23:11:00.539027,0.1844078302383422,,
530,76389,1-1-001,2024-10-04 23:11:18.168359,eda,1728083460789027,2024-10-04 23:11:00.789027,0.185221254825592,,
531,76390,1-1-001,2024-10-04 23:11:18.168359,eda,1728083461039027,2024-10-04 23:11:01.039027,0.1848566234111786,,
532,76391,1-1-001,2024-10-04 23:11:18.168359,eda,1728083461289027,2024-10-04 23:11:01.289027,0.184590145945549,,
533,76392,1-1-001,2024-10-04 23:11:18.168359,eda,1728083461539027,2024-10-04 23:11:01.539027,0.1844218522310257,,
534,76393,1-1-001,2024-10-04 23:11:18.168359,eda,1728083461789027,2024-10-04 23:11:01.789027,0.184365764260292,,
535,76394,1-1-001,2024-10-04 23:11:18.168359,eda,1728083462039027,2024-10-04 23:11:02.039027,0.1830334365367889,,
536,76395,1-1-001,2024-10-04 23:11:18.168359,eda,1728083462289027,2024-10-04 23:11:02.289027,0.1844919770956039,,
537,76396,1-1-001,2024-10-04 23:11:18.168359,eda,1728083462539027,2024-10-04 23:11:02.539027,0.1829633116722107,,
538,76397,1-1-001,2024-10-04 23:11:18.168359,eda,1728083462789027,2024-10-04 23:11:02.789027,0.1818974614143371,,
539,76398,1-1-001,2024-10-04 23:11:18.168359,eda,1728083463039027,2024-10-04 23:11:03.039027,0.1825005114078521,,
540,76399,1-1-001,2024-10-04 23:11:18.168359,eda,1728083463289027,2024-10-04 23:11:03.289027,0.1808736771345138,,
541,76400,1-1-001,2024-10-04 23:11:18.168359,eda,1728083463539027,2024-10-04 23:11:03.539027,0.1871145516633987,,
542,76401,1-1-001,2024-10-04 23:11:18.168359,eda,1728083463789027,2024-10-04 23:11:03.789027,0.1898072510957718,,
543,76402,1-1-001,2024-10-04 23:11:18.168359,eda,1728083464039027,2024-10-04 23:11:04.039027,0.190101757645607,,
544,76403,1-1-001,2024-10-04 23:11:18.168359,eda,1728083464289027,2024-10-04 23:11:04.289027,0.1907188296318054,,
545,76404,1-1-001,2024-10-04 23:11:18.168359,eda,1728083464539027,2024-10-04 23:11:04.539027,0.1910273730754852,,
546,76405,1-1-001,2024-10-04 23:11:18.168359,eda,1728083464789027,2024-10-04 23:11:04.789027,0.1932853013277053,,
547,76406,1-1-001,2024-10-04 23:11:18.168359,eda,1728083465039027,2024-10-04 23:11:05.039027,0.1934395730495453,,
548,76407,1-1-001,2024-10-04 23:11:18.168359,eda,1728083465289027,2024-10-04 23:11:05.289027,0.19329933822155,,
549,76408,1-1-001,2024-10-04 23:11:18.168359,eda,1728083465539027,2024-10-04 23:11:05.539027,0.1941407918930053,,
550,76409,1-1-001,2024-10-04 23:11:18.168359,eda,1728083465789027,2024-10-04 23:11:05.789027,0.1929767727851867,,
551,76410,1-1-001,2024-10-04 23:11:18.168359,eda,1728083466039027,2024-10-04 23:11:06.039027,0.1928084790706634,,
552,76411,1-1-001,2024-10-04 23:11:18.168359,eda,1728083466289027,2024-10-04 23:11:06.289027,0.1925560384988784,,
553,76412,1-1-001,2024-10-04 23:11:18.168359,eda,1728083466539027,2024-10-04 23:11:06.539027,0.1896529793739318,,
554,76413,1-1-001,2024-10-04 23:11:18.168359,eda,1728083466789027,2024-10-04 23:11:06.789027,0.1858804076910019,,
555,76414,1-1-001,2024-10-04 23:11:18.168359,eda,1728083467039027,2024-10-04 23:11:07.039027,0.1848986893892288,,
556,76415,1-1-001,2024-10-04 23:11:18.168359,eda,1728083467289027,2024-10-04 23:11:07.289027,0.1834261268377304,,
557,76416,1-1-001,2024-10-04 23:11:18.168359,eda,1728083467539027,2024-10-04 23:11:07.539027,0.1818694025278091,,
558,76417,1-1-001,2024-10-04 23:11:18.168359,eda,1728083467789027,2024-10-04 23:11:07.789027,0.1833980679512024,,
559,76418,1-1-001,2024-10-04 23:11:18.168359,eda,1728083468039027,2024-10-04 23:11:08.039027,0.1841273456811905,,
560,76419,1-1-001,2024-10-04 23:11:18.168359,eda,1728083468289027,2024-10-04 23:11:08.289027,0.1831175833940506,,
561,76420,1-1-001,2024-10-04 23:11:18.168359,eda,1728083468539027,2024-10-04 23:11:08.539027,0.1835944205522537,,
562,76421,1-1-001,2024-10-04 23:11:18.168359,eda,1728083468789027,2024-10-04 23:11:08.789027,0.1824864894151687,,
563,76422,1-1-001,2024-10-04 23:11:18.168359,eda,1728083469039027,2024-10-04 23:11:09.039027,0.1838749051094055,,
564,76423,1-1-001,2024-10-04 23:11:18.168359,eda,1728083469289027,2024-10-04 23:11:09.289027,0.1827950179576873,,
565,76424,1-1-001,2024-10-04 23:11:18.168359,eda,1728083469539027,2024-10-04 23:11:09.539027,0.1825425773859024,,
566,76425,1-1-001,2024-10-04 23:11:18.168359,eda,1728083469789027,2024-10-04 23:11:09.789027,0.1823883205652237,,
567,76426,1-1-001,2024-10-04 23:11:18.168359,eda,1728083470039027,2024-10-04 23:11:10.039027,0.1826407611370086,,
568,76427,1-1-001,2024-10-04 23:11:18.168359,eda,1728083470289027,2024-10-04 23:11:10.289027,0.182907223701477,,
569,76428,1-1-001,2024-10-04 23:11:18.168359,eda,1728083470539027,2024-10-04 23:11:10.539027,0.1832438111305236,,
570,76429,1-1-001,2024-10-04 23:11:18.168359,eda,1728083470789027,2024-10-04 23:11:10.789027,0.1831456273794174,,
571,76430,1-1-001,2024-10-04 23:11:18.168359,eda,1728083471039027,2024-10-04 23:11:11.039027,0.1824724674224853,,
572,76431,1-1-001,2024-10-04 23:11:18.168359,eda,1728083471289027,2024-10-04 23:11:11.289027,0.1832578331232071,,
573,76432,1-1-001,2024-10-04 23:11:18.168359,eda,1728083471539027,2024-10-04 23:11:11.539027,0.1823322176933288,,
574,76433,1-1-001,2024-10-04 23:11:18.168359,eda,1728083471789027,2024-10-04 23:11:11.789027,0.1830895394086837,,
575,76434,1-1-001,2024-10-04 23:11:18.168359,eda,1728083472039027,2024-10-04 23:11:12.039027,0.1818834394216537,,
576,76435,1-1-001,2024-10-04 23:11:18.168359,eda,1728083472289027,2024-10-04 23:11:12.289027,0.1821779459714889,,
577,76436,1-1-001,2024-10-04 23:11:18.168359,eda,1728083472539027,2024-10-04 23:11:12.539027,0.1898913979530334,,
578,76437,1-1-001,2024-10-04 23:11:18.168359,eda,1728083472789027,2024-10-04 23:11:12.789027,0.1897231042385101,,
579,76438,1-1-001,2024-10-04 23:11:18.168359,eda,1728083473039027,2024-10-04 23:11:13.039027,0.182879164814949,,
580,76439,1-1-001,2024-10-04 23:11:18.168359,eda,1728083473289027,2024-10-04 23:11:13.289027,0.1722907125949859,,
581,76440,1-1-001,2024-10-04 23:11:18.168359,eda,1728083473539027,2024-10-04 23:11:13.539027,0.1938603073358535,,
582,76441,1-1-001,2024-10-04 23:11:18.168359,eda,1728083473789027,2024-10-04 23:11:13.789027,0.2242512851953506,,
583,76442,1-1-001,2024-10-04 23:11:18.168359,eda,1728083474039027,2024-10-04 23:11:14.039027,0.2104932963848114,,
584,76443,1-1-001,2024-10-04 23:11:18.168359,eda,1728083474289027,2024-10-04 23:11:14.289027,0.1982359439134597,,
585,76444,1-1-001,2024-10-04 23:11:18.168359,eda,1728083474539027,2024-10-04 23:11:14.539027,0.1880261451005935,,
586,76445,1-1-001,2024-10-04 23:11:18.168359,eda,1728083474789027,2024-10-04 23:11:14.789027,0.181070014834404,,
587,76446,1-1-001,2024-10-04 23:11:18.168359,eda,1728083475039027,2024-10-04 23:11:15.039027,0.175838902592659,,
588,76447,1-1-001,2024-10-04 23:11:18.168359,eda,1728083475289027,2024-10-04 23:11:15.289027,0.1733004748821258,,
589,76448,1-1-001,2024-10-04 23:11:18.168359,eda,1728083475539027,2024-10-04 23:11:15.539027,0.1704114377498626,,
590,76449,1-1-001,2024-10-04 23:11:18.168359,eda,1728083475789027,2024-10-04 23:11:15.789027,0.1676205694675445,,
591,76450,1-1-001,2024-10-04 23:11:18.168359,eda,1728083476039027,2024-10-04 23:11:16.039027,0.1644370257854461,,
592,76451,1-1-001,2024-10-04 23:11:18.168359,eda,1728083476289027,2024-10-04 23:11:16.289027,0.1646894663572311,,
593,76452,1-1-001,2024-10-04 23:11:18.168359,eda,1728083476539027,2024-10-04 23:11:16.539027,0.1633992195129394,,
594,76453,1-1-001,2024-10-04 23:11:18.168359,eda,1728083476789027,2024-10-04 23:11:16.789027,0.162501648068428,,
595,76454,1-1-001,2024-10-04 23:11:18.168359,eda,1728083477039027,2024-10-04 23:11:17.039027,0.1594162732362747,,
596,76455,1-1-001,2024-10-04 23:11:18.168359,eda,1728083477289027,2024-10-04 23:11:17.289027,0.1582943201065063,,
597,76456,1-1-001,2024-10-04 23:11:18.168359,eda,1728083477539027,2024-10-04 23:11:17.539027,0.157775416970253,,
598,76457,1-1-001,2024-10-04 23:11:18.168359,eda,1728083477789027,2024-10-04 23:11:17.789027,0.1573126018047332,,
599,76458,1-1-001,2024-10-04 23:11:18.168359,eda,1728083478039027,2024-10-04 23:11:18.039027,0.156316876411438,,
600,76459,1-1-001,2024-10-04 23:11:18.168359,eda,1728083478289027,2024-10-04 23:11:18.289027,0.1608607918024063,,
601,76460,1-1-001,2024-10-04 23:11:18.168359,eda,1728083478539027,2024-10-04 23:11:18.539027,0.1681254506111145,,
602,76461,1-1-001,2024-10-04 23:11:18.168359,eda,1728083478789027,2024-10-04 23:11:18.789027,0.1809017211198806,,
603,76462,1-1-001,2024-10-04 23:11:18.168359,eda,1728083479039027,2024-10-04 23:11:19.039027,0.1808876991271972,,
604,76463,1-1-001,2024-10-04 23:11:18.168359,eda,1728083479289027,2024-10-04 23:11:19.289027,0.1779145151376724,,
605,76464,1-1-001,2024-10-04 23:11:18.168359,eda,1728083479539027,2024-10-04 23:11:19.539027,0.1765962243080139,,
606,76465,1-1-001,2024-10-04 23:11:18.168359,eda,1728083479789027,2024-10-04 23:11:19.789027,0.1733986437320709,,
607,76466,1-1-001,2024-10-04 23:11:18.168359,eda,1728083480039027,2024-10-04 23:11:20.039027,0.172991931438446,,
608,76467,1-1-001,2024-10-04 23:11:18.168359,eda,1728083480289027,2024-10-04 23:11:20.289027,0.1720102280378341,,
609,76468,1-1-001,2024-10-04 23:11:18.168359,eda,1728083480539027,2024-10-04 23:11:20.539027,0.1829773336648941,,
610,76469,1-1-001,2024-10-04 23:11:18.168359,eda,1728083480789027,2024-10-04 23:11:20.789027,0.1827950179576873,,
611,76470,1-1-001,2024-10-04 23:11:18.168359,eda,1728083481039027,2024-10-04 23:11:21.039027,0.182556614279747,,
612,76471,1-1-001,2024-10-04 23:11:18.168359,eda,1728083481289027,2024-10-04 23:11:21.289027,0.1811261177062988,,
613,76472,1-1-001,2024-10-04 23:11:18.168359,eda,1728083481539027,2024-10-04 23:11:21.539027,0.1806352585554123,,
614,76473,1-1-001,2024-10-04 23:11:18.168359,eda,1728083481789027,2024-10-04 23:11:21.789027,0.1812102645635604,,
615,76474,1-1-001,2024-10-04 23:11:18.168359,eda,1728083482039027,2024-10-04 23:11:22.039027,0.1813084334135055,,
616,76475,1-1-001,2024-10-04 23:11:18.168359,eda,1728083482289027,2024-10-04 23:11:22.289027,0.1828090399503708,,
617,76476,1-1-001,2024-10-04 23:11:18.168359,eda,1728083482539027,2024-10-04 23:11:22.539027,0.1835803985595703,,
618,76477,1-1-001,2024-10-04 23:11:18.168359,eda,1728083482789027,2024-10-04 23:11:22.789027,0.1836505085229873,,
619,76478,1-1-001,2024-10-04 23:11:18.168359,eda,1728083483039027,2024-10-04 23:11:23.039027,0.1821218430995941,,
620,76479,1-1-001,2024-10-04 23:11:18.168359,eda,1728083483289027,2024-10-04 23:11:23.289027,0.1819114834070205,,
621,76480,1-1-001,2024-10-04 23:11:18.168359,eda,1728083483539027,2024-10-04 23:11:23.539027,0.1815748959779739,,
622,76481,1-1-001,2024-10-04 23:11:18.168359,eda,1728083483789027,2024-10-04 23:11:23.789027,0.1817852556705474,,
623,76482,1-1-001,2024-10-04 23:11:18.168359,eda,1728083484039027,2024-10-04 23:11:24.039027,0.1801163554191589,,
624,76483,1-1-001,2024-10-04 23:11:18.168359,eda,1728083484289027,2024-10-04 23:11:24.289027,0.1801724582910537,,
625,76484,1-1-001,2024-10-04 23:11:18.168359,eda,1728083484539027,2024-10-04 23:11:24.539027,0.1806352585554123,,
626,76485,1-1-001,2024-10-04 23:11:18.168359,eda,1728083484789027,2024-10-04 23:11:24.789027,0.1827529519796371,,
627,76486,1-1-001,2024-10-04 23:11:18.168359,eda,1728083485039027,2024-10-04 23:11:25.039027,0.1747870594263076,,
628,76487,1-1-001,2024-10-04 23:11:18.168359,eda,1728083485289027,2024-10-04 23:11:25.289027,0.1727815717458725,,
629,76488,1-1-001,2024-10-04 23:11:18.168359,eda,1728083485539027,2024-10-04 23:11:25.539027,0.1727955937385559,,
630,76489,1-1-001,2024-10-04 23:11:18.168359,eda,1728083485789027,2024-10-04 23:11:25.789027,0.172739490866661,,
631,76490,1-1-001,2024-10-04 23:11:18.168359,eda,1728083486039027,2024-10-04 23:11:26.039027,0.1722346097230911,,
632,76491,1-1-001,2024-10-04 23:11:18.168359,eda,1728083486289027,2024-10-04 23:11:26.289027,0.1725571751594543,,
633,76492,1-1-001,2024-10-04 23:11:18.168359,eda,1728083486539027,2024-10-04 23:11:26.539027,0.1716596186161041,,
634,76493,1-1-001,2024-10-04 23:11:18.168359,eda,1728083486789027,2024-10-04 23:11:26.789027,0.1706638783216476,,
635,76494,1-1-001,2024-10-04 23:11:18.168359,eda,1728083487039027,2024-10-04 23:11:27.039027,0.1707480251789093,,
636,76495,1-1-001,2024-10-04 23:11:18.168359,eda,1728083487289027,2024-10-04 23:11:27.289027,0.1705376505851745,,
637,76496,1-1-001,2024-10-04 23:11:18.168359,eda,1728083487539027,2024-10-04 23:11:27.539027,0.1710285097360611,,
638,76497,1-1-001,2024-10-04 23:11:18.168359,eda,1728083487789027,2024-10-04 23:11:27.789027,0.1711687594652176,,
639,76498,1-1-001,2024-10-04 23:11:18.168359,eda,1728083488039027,2024-10-04 23:11:28.039027,0.172136440873146,,
640,76499,1-1-001,2024-10-04 23:11:18.168359,eda,1728083488289027,2024-10-04 23:11:28.289027,0.1708321720361709,,
641,76500,1-1-001,2024-10-04 23:11:18.168359,eda,1728083488539027,2024-10-04 23:11:28.539027,0.169219359755516,,
642,76501,1-1-001,2024-10-04 23:11:18.168359,eda,1728083488789027,2024-10-04 23:11:28.789027,0.1690370440483093,,
643,76502,1-1-001,2024-10-04 23:11:18.168359,eda,1728083489039027,2024-10-04 23:11:29.039027,0.170677900314331,,
644,76503,1-1-001,2024-10-04 23:11:18.168359,eda,1728083489289027,2024-10-04 23:11:29.289027,0.1693175286054611,,
645,76504,1-1-001,2024-10-04 23:11:18.168359,eda,1728083489539027,2024-10-04 23:11:29.539027,0.171280950307846,,
646,76505,1-1-001,2024-10-04 23:11:18.168359,eda,1728083489789027,2024-10-04 23:11:29.789027,0.1698504537343979,,
647,76506,1-1-001,2024-10-04 23:11:18.168359,eda,1728083490039027,2024-10-04 23:11:30.039027,0.1720943748950958,,
648,76507,1-1-001,2024-10-04 23:11:18.168359,eda,1728083490289027,2024-10-04 23:11:30.289027,0.1727535128593444,,
649,76508,1-1-001,2024-10-04 23:11:18.168359,eda,1728083490539027,2024-10-04 23:11:30.539027,0.1733004748821258,,
650,76509,1-1-001,2024-10-04 23:11:18.168359,eda,1728083490789027,2024-10-04 23:11:30.789027,0.172641322016716,,
651,76510,1-1-001,2024-10-04 23:11:18.168359,eda,1728083491039027,2024-10-04 23:11:31.039027,0.1716315597295761,,
652,76511,1-1-001,2024-10-04 23:11:18.168359,eda,1728083491289027,2024-10-04 23:11:31.289027,0.1720522940158844,,
653,76512,1-1-001,2024-10-04 23:11:18.168359,eda,1728083491539027,2024-10-04 23:11:31.539027,0.1738614439964294,,
654,76513,1-1-001,2024-10-04 23:11:18.168359,eda,1728083491789027,2024-10-04 23:11:31.789027,0.1730901002883911,,
655,76514,1-1-001,2024-10-04 23:11:18.168359,eda,1728083492039027,2024-10-04 23:11:32.039027,0.1727815717458725,,
656,76515,1-1-001,2024-10-04 23:11:18.168359,eda,1728083492289027,2024-10-04 23:11:32.289027,0.1721504628658294,,
657,76516,1-1-001,2024-10-04 23:11:18.168359,eda,1728083492539027,2024-10-04 23:11:32.539027,0.1723047345876693,,
658,76517,1-1-001,2024-10-04 23:11:18.168359,eda,1728083492789027,2024-10-04 23:11:32.789027,0.1782651245594024,,
659,76518,1-1-001,2024-10-04 23:11:18.168359,eda,1728083493039027,2024-10-04 23:11:33.039027,0.1770169585943222,,
660,76519,1-1-001,2024-10-04 23:11:18.168359,eda,1728083493289027,2024-10-04 23:11:33.289027,0.1769047528505325,,
661,76520,1-1-001,2024-10-04 23:11:18.168359,eda,1728083493539027,2024-10-04 23:11:33.539027,0.1781248897314071,,
662,76521,1-1-001,2024-10-04 23:11:18.168359,eda,1728083493789027,2024-10-04 23:11:33.789027,0.1772834211587906,,
663,76522,1-1-001,2024-10-04 23:11:18.168359,eda,1728083494039027,2024-10-04 23:11:34.039027,0.1767645180225372,,
664,76523,1-1-001,2024-10-04 23:11:18.168359,eda,1728083494289027,2024-10-04 23:11:34.289027,0.1757968217134475,,
665,76524,1-1-001,2024-10-04 23:11:18.168359,eda,1728083494539027,2024-10-04 23:11:34.539027,0.1767084151506424,,
666,76525,1-1-001,2024-10-04 23:11:18.168359,eda,1728083494789027,2024-10-04 23:11:34.789027,0.1768065840005874,,
667,76526,1-1-001,2024-10-04 23:11:18.168359,eda,1728083495039027,2024-10-04 23:11:35.039027,0.1747870594263076,,
668,76527,1-1-001,2024-10-04 23:11:18.168359,eda,1728083495289027,2024-10-04 23:11:35.289027,0.173496812582016,,
669,76528,1-1-001,2024-10-04 23:11:18.168359,eda,1728083495539027,2024-10-04 23:11:35.539027,0.1691071689128875,,
670,76529,1-1-001,2024-10-04 23:11:18.168359,eda,1728083495789027,2024-10-04 23:11:35.789027,0.1701730191707611,,
671,76530,1-1-001,2024-10-04 23:11:18.168359,eda,1728083496039027,2024-10-04 23:11:36.039027,0.1703553348779678,,
672,76531,1-1-001,2024-10-04 23:11:18.168359,eda,1728083496289027,2024-10-04 23:11:36.289027,0.1692333817481994,,
673,76532,1-1-001,2024-10-04 23:11:18.168359,eda,1728083496539027,2024-10-04 23:11:36.539027,0.1691211909055709,,
674,76533,1-1-001,2024-10-04 23:11:18.168359,eda,1728083496789027,2024-10-04 23:11:36.789027,0.1701169312000274,,
675,76534,1-1-001,2024-10-04 23:11:18.168359,eda,1728083497039027,2024-10-04 23:11:37.039027,0.1688266694545745,,
676,76535,1-1-001,2024-10-04 23:11:18.168359,eda,1728083497289027,2024-10-04 23:11:37.289027,0.1694577783346176,,
677,76536,1-1-001,2024-10-04 23:11:18.168359,eda,1728083497539027,2024-10-04 23:11:37.539027,0.1690230220556259,,
678,76537,1-1-001,2024-10-04 23:11:18.168359,eda,1728083497789027,2024-10-04 23:11:37.789027,0.1696961969137191,,
679,76538,1-1-001,2024-10-04 23:11:18.168359,eda,1728083498039027,2024-10-04 23:11:38.039027,0.1745346188545227,,
680,76539,1-1-001,2024-10-04 23:11:18.168359,eda,1728083498289027,2024-10-04 23:11:38.289027,0.1761474311351776,,
681,76540,1-1-001,2024-10-04 23:11:18.168359,eda,1728083498539027,2024-10-04 23:11:38.539027,0.173019990324974,,
682,76541,1-1-001,2024-10-04 23:11:18.168359,eda,1728083498789027,2024-10-04 23:11:38.789027,0.1704815626144409,,
683,76542,1-1-001,2024-10-04 23:11:18.168359,eda,1728083499039027,2024-10-04 23:11:39.039027,0.1579437106847763,,
684,76543,1-1-001,2024-10-04 23:11:18.168359,eda,1728083499289027,2024-10-04 23:11:39.289027,0.1545638144016266,,
685,76544,1-1-001,2024-10-04 23:11:18.168359,eda,1728083499539027,2024-10-04 23:11:39.539027,0.1486034244298935,,
686,76545,1-1-001,2024-10-04 23:11:18.168359,eda,1728083499789027,2024-10-04 23:11:39.789027,0.1456162184476852,,
687,76546,1-1-001,2024-10-04 23:11:18.168359,eda,1728083500039027,2024-10-04 23:11:40.039027,0.1431058496236801,,
688,76547,1-1-001,2024-10-04 23:11:18.168359,eda,1728083500289027,2024-10-04 23:11:40.289027,0.1360795944929123,,
689,76548,1-1-001,2024-10-04 23:11:18.168359,eda,1728083500539027,2024-10-04 23:11:40.539027,0.144718661904335,,
690,76549,1-1-001,2024-10-04 23:11:18.168359,eda,1728083500789027,2024-10-04 23:11:40.789027,0.1474393904209137,,
691,76550,1-1-001,2024-10-04 23:11:18.168359,eda,1728083501039027,2024-10-04 23:11:41.039027,0.1477479338645935,,
692,76551,1-1-001,2024-10-04 23:11:18.168359,eda,1728083501289027,2024-10-04 23:11:41.289027,0.1468223184347152,,
693,76552,1-1-001,2024-10-04 23:11:18.168359,eda,1728083501539027,2024-10-04 23:11:41.539027,0.1480985432863235,,
694,76553,1-1-001,2024-10-04 23:11:18.168359,eda,1728083501789027,2024-10-04 23:11:41.789027,0.1486314684152603,,
695,76554,1-1-001,2024-10-04 23:11:18.168359,eda,1728083502039027,2024-10-04 23:11:42.039027,0.1464436650276184,,
696,76555,1-1-001,2024-10-04 23:11:18.168359,eda,1728083502289027,2024-10-04 23:11:42.289027,0.1464436650276184,,
697,76556,1-1-001,2024-10-04 23:11:18.168359,eda,1728083502539027,2024-10-04 23:11:42.539027,0.1481967121362686,,
698,76557,1-1-001,2024-10-04 23:11:18.168359,eda,1728083502789027,2024-10-04 23:11:42.789027,0.1482668370008468,,
699,76558,1-1-001,2024-10-04 23:11:18.168359,eda,1728083503039027,2024-10-04 23:11:43.039027,0.1500058770179748,,
700,76559,1-1-001,2024-10-04 23:11:18.168359,eda,1728083503289027,2024-10-04 23:11:43.289027,0.1577333360910415,,
701,76560,1-1-001,2024-10-04 23:11:18.168359,eda,1728083503539027,2024-10-04 23:11:43.539027,0.1558821201324463,,
702,76561,1-1-001,2024-10-04 23:11:18.168359,eda,1728083503789027,2024-10-04 23:11:43.789027,0.1518711149692535,,
703,76562,1-1-001,2024-10-04 23:11:18.168359,eda,1728083504039027,2024-10-04 23:11:44.039027,0.148491233587265,,
704,76563,1-1-001,2024-10-04 23:11:18.168359,eda,1728083504289027,2024-10-04 23:11:44.289027,0.1416332721710205,,
705,76564,1-1-001,2024-10-04 23:11:18.168359,eda,1728083504539027,2024-10-04 23:11:44.539027,0.1483509838581085,,
706,76565,1-1-001,2024-10-04 23:11:18.168359,eda,1728083504789027,2024-10-04 23:11:44.789027,0.148491233587265,,
707,76566,1-1-001,2024-10-04 23:11:18.168359,eda,1728083505039027,2024-10-04 23:11:45.039027,0.1510016024112701,,
708,76567,1-1-001,2024-10-04 23:11:18.168359,eda,1728083505289027,2024-10-04 23:11:45.289027,0.1515906304121017,,
709,76568,1-1-001,2024-10-04 23:11:18.168359,eda,1728083505539027,2024-10-04 23:11:45.539027,0.1520253866910934,,
710,76569,1-1-001,2024-10-04 23:11:18.168359,eda,1728083505789027,2024-10-04 23:11:45.789027,0.1522357612848281,,
711,76570,1-1-001,2024-10-04 23:11:18.168359,eda,1728083506039027,2024-10-04 23:11:46.039027,0.1518150269985199,,
712,76571,1-1-001,2024-10-04 23:11:18.168359,eda,1728083506289027,2024-10-04 23:11:46.289027,0.1512119770050048,,
713,76572,1-1-001,2024-10-04 23:11:18.168359,eda,1728083506539027,2024-10-04 23:11:46.539027,0.1529650241136551,,
714,76573,1-1-001,2024-10-04 23:11:18.168359,eda,1728083506789027,2024-10-04 23:11:46.789027,0.1518290489912033,,
715,76574,1-1-001,2024-10-04 23:11:18.168359,eda,1728083507039027,2024-10-04 23:11:47.039027,0.1518150269985199,,
716,76575,1-1-001,2024-10-04 23:11:18.168359,eda,1728083507289027,2024-10-04 23:11:47.289027,0.1512259989976883,,
717,76576,1-1-001,2024-10-04 23:11:18.168359,eda,1728083507539027,2024-10-04 23:11:47.539027,0.1522497832775116,,
718,76577,1-1-001,2024-10-04 23:11:18.168359,eda,1728083507789027,2024-10-04 23:11:47.789027,0.1509595364332199,,
719,76578,1-1-001,2024-10-04 23:11:18.168359,eda,1728083508039027,2024-10-04 23:11:48.039027,0.1519131958484649,,
720,76579,1-1-001,2024-10-04 23:11:18.168359,eda,1728083508289027,2024-10-04 23:11:48.289027,0.1520534455776214,,
721,76580,1-1-001,2024-10-04 23:11:18.168359,eda,1728083508539027,2024-10-04 23:11:48.539027,0.1516747772693634,,
722,76581,1-1-001,2024-10-04 23:11:18.168359,eda,1728083508789027,2024-10-04 23:11:48.789027,0.1514784395694732,,
723,76582,1-1-001,2024-10-04 23:11:18.168359,eda,1728083509039027,2024-10-04 23:11:49.039027,0.1514924615621566,,
724,76583,1-1-001,2024-10-04 23:11:18.168359,eda,1728083509289027,2024-10-04 23:11:49.289027,0.1514223366975784,,
725,76584,1-1-001,2024-10-04 23:11:18.168359,eda,1728083509539027,2024-10-04 23:11:49.539027,0.1508192867040634,,
726,76585,1-1-001,2024-10-04 23:11:18.168359,eda,1728083509789027,2024-10-04 23:11:49.789027,0.1523058861494064,,
727,76586,1-1-001,2024-10-04 23:11:18.168359,eda,1728083510039027,2024-10-04 23:11:50.039027,0.1510296612977981,,
728,76587,1-1-001,2024-10-04 23:11:18.168359,eda,1728083510289027,2024-10-04 23:11:50.289027,0.1513662487268448,,
729,76588,1-1-001,2024-10-04 23:11:18.168359,eda,1728083510539027,2024-10-04 23:11:50.539027,0.151758924126625,,
730,76589,1-1-001,2024-10-04 23:11:18.168359,eda,1728083510789027,2024-10-04 23:11:50.789027,0.1525162458419799,,
731,76590,1-1-001,2024-10-04 23:11:18.168359,eda,1728083511039027,2024-10-04 23:11:51.039027,0.1502162367105484,,
732,76591,1-1-001,2024-10-04 23:11:18.168359,eda,1728083511289027,2024-10-04 23:11:51.289027,0.151408314704895,,
733,76592,1-1-001,2024-10-04 23:11:18.168359,eda,1728083511539027,2024-10-04 23:11:51.539027,0.1525723487138748,,
734,76593,1-1-001,2024-10-04 23:11:18.168359,eda,1728083511789027,2024-10-04 23:11:51.789027,0.1537363678216934,,
735,76594,1-1-001,2024-10-04 23:11:18.168359,eda,1728083512039027,2024-10-04 23:11:52.039027,0.15372234582901,,
736,76595,1-1-001,2024-10-04 23:11:18.168359,eda,1728083512289027,2024-10-04 23:11:52.289027,0.1518290489912033,,
737,76596,1-1-001,2024-10-04 23:11:18.168359,eda,1728083512539027,2024-10-04 23:11:52.539027,0.1518150269985199,,
738,76597,1-1-001,2024-10-04 23:11:18.168359,eda,1728083512789027,2024-10-04 23:11:52.789027,0.1533156335353851,,
739,76598,1-1-001,2024-10-04 23:11:18.168359,eda,1728083513039027,2024-10-04 23:11:53.039027,0.1517168581485748,,
740,76599,1-1-001,2024-10-04 23:11:18.168359,eda,1728083513289027,2024-10-04 23:11:53.289027,0.1524741798639297,,
741,76600,1-1-001,2024-10-04 23:11:18.168359,eda,1728083513539027,2024-10-04 23:11:53.539027,0.1550546735525131,,
742,76601,1-1-001,2024-10-04 23:11:18.168359,eda,1728083513789027,2024-10-04 23:11:53.789027,0.1540589332580566,,
743,76602,1-1-001,2024-10-04 23:11:18.168359,eda,1728083514039027,2024-10-04 23:11:54.039027,0.1535680741071701,,
744,76603,1-1-001,2024-10-04 23:11:18.168359,eda,1728083514289027,2024-10-04 23:11:54.289027,0.153820514678955,,
745,76604,1-1-001,2024-10-04 23:11:18.168359,eda,1728083514539027,2024-10-04 23:11:54.539027,0.1536241769790649,,
746,76605,1-1-001,2024-10-04 23:11:18.168359,eda,1728083514789027,2024-10-04 23:11:54.789027,0.1539186835289001,,
747,76606,1-1-001,2024-10-04 23:11:18.168359,eda,1728083515039027,2024-10-04 23:11:55.039027,0.1540869772434234,,
748,76607,1-1-001,2024-10-04 23:11:18.168359,eda,1728083515289027,2024-10-04 23:11:55.289027,0.1549144238233566,,
749,76608,1-1-001,2024-10-04 23:11:18.168359,eda,1728083515539027,2024-10-04 23:11:55.539027,0.155180886387825,,
750,76609,1-1-001,2024-10-04 23:11:18.168359,eda,1728083515789027,2024-10-04 23:11:55.789027,0.1547321081161499,,
751,76610,1-1-001,2024-10-04 23:11:18.168359,eda,1728083516039027,2024-10-04 23:11:56.039027,0.1561485826969146,,
752,76611,1-1-001,2024-10-04 23:11:18.168359,eda,1728083516289027,2024-10-04 23:11:56.289027,0.1567235738039016,,
753,76612,1-1-001,2024-10-04 23:11:18.168359,eda,1728083516539027,2024-10-04 23:11:56.539027,0.1562747955322265,,
754,76613,1-1-001,2024-10-04 23:11:18.168359,eda,1728083516789027,2024-10-04 23:11:56.789027,0.1579577326774597,,
755,76614,1-1-001,2024-10-04 23:11:18.168359,eda,1728083517039027,2024-10-04 23:11:57.039027,0.1556997895240783,,
756,76615,1-1-001,2024-10-04 23:11:18.168359,eda,1728083517289027,2024-10-04 23:11:57.289027,0.1562327295541763,,
757,76616,1-1-001,2024-10-04 23:11:18.168359,eda,1728083517539027,2024-10-04 23:11:57.539027,0.1555875986814499,,
758,76617,1-1-001,2024-10-04 23:11:18.168359,eda,1728083517789027,2024-10-04 23:11:57.789027,0.1546199172735214,,
759,76618,1-1-001,2024-10-04 23:11:18.168359,eda,1728083518039027,2024-10-04 23:11:58.039027,0.1501320898532867,,
760,76619,1-1-001,2024-10-04 23:11:18.168359,eda,1728083518289027,2024-10-04 23:11:58.289027,0.1472851336002349,,
761,76620,1-1-001,2024-10-04 23:11:18.168359,eda,1728083518539027,2024-10-04 23:11:58.539027,0.1496833115816116,,
762,76621,1-1-001,2024-10-04 23:11:18.168359,eda,1728083518789027,2024-10-04 23:11:58.789027,0.1516747772693634,,
763,76622,1-1-001,2024-10-04 23:11:18.168359,eda,1728083519039027,2024-10-04 23:11:59.039027,0.1559662669897079,,
764,76623,1-1-001,2024-10-04 23:11:18.168359,eda,1728083519289027,2024-10-04 23:11:59.289027,0.1546199172735214,,
765,76624,1-1-001,2024-10-04 23:11:18.168359,eda,1728083519539027,2024-10-04 23:11:59.539027,0.1536241769790649,,
766,76625,1-1-001,2024-10-04 23:11:18.168359,eda,1728083519789027,2024-10-04 23:11:59.789027,0.1534138172864914,,
767,76626,1-1-001,2024-10-04 23:11:18.168359,eda,1728083520039027,2024-10-04 23:12:00.039027,0.15372234582901,,
768,76627,1-1-001,2024-10-04 23:11:18.168359,eda,1728083520289027,2024-10-04 23:12:00.289027,0.1533436924219131,,
769,76628,1-1-001,2024-10-04 23:11:18.168359,eda,1728083520539027,2024-10-04 23:12:00.539027,0.1547321081161499,,
770,76629,1-1-001,2024-10-04 23:11:18.168359,eda,1728083520789027,2024-10-04 23:12:00.789027,0.1529930830001831,,
771,76630,1-1-001,2024-10-04 23:11:18.168359,eda,1728083521039027,2024-10-04 23:12:01.039027,0.153497964143753,,
772,76631,1-1-001,2024-10-04 23:11:18.168359,eda,1728083521289027,2024-10-04 23:12:01.289027,0.1543394178152084,,
773,76632,1-1-001,2024-10-04 23:11:18.168359,eda,1728083521539027,2024-10-04 23:12:01.539027,0.1545638144016266,,
774,76633,1-1-001,2024-10-04 23:11:18.168359,eda,1728083521789027,2024-10-04 23:12:01.789027,0.1539186835289001,,
775,76634,1-1-001,2024-10-04 23:11:18.168359,eda,1728083522039027,2024-10-04 23:12:02.039027,0.1543814986944198,,
776,76635,1-1-001,2024-10-04 23:11:18.168359,eda,1728083522289027,2024-10-04 23:12:02.289027,0.1557558923959732,,
777,76636,1-1-001,2024-10-04 23:11:18.168359,eda,1728083522539027,2024-10-04 23:12:02.539027,0.153469905257225,,
778,76637,1-1-001,2024-10-04 23:11:18.168359,eda,1728083522789027,2024-10-04 23:12:02.789027,0.1542412489652633,,
779,76638,1-1-001,2024-10-04 23:11:18.168359,eda,1728083523039027,2024-10-04 23:12:03.039027,0.1541991829872131,,
780,76639,1-1-001,2024-10-04 23:11:18.168359,eda,1728083523289027,2024-10-04 23:12:03.289027,0.154605895280838,,
781,76640,1-1-001,2024-10-04 23:11:18.168359,eda,1728083523539027,2024-10-04 23:12:03.539027,0.1550967395305633,,
782,76641,1-1-001,2024-10-04 23:11:18.168359,eda,1728083523789027,2024-10-04 23:12:03.789027,0.1542973518371582,,
783,76642,1-1-001,2024-10-04 23:11:18.168359,eda,1728083524039027,2024-10-04 23:12:04.039027,0.1541991829872131,,
784,76643,1-1-001,2024-10-04 23:11:18.168359,eda,1728083524289027,2024-10-04 23:12:04.289027,0.1539467424154281,,
785,76644,1-1-001,2024-10-04 23:11:18.168359,eda,1728083524539027,2024-10-04 23:12:04.539027,0.1550967395305633,,
786,76645,1-1-001,2024-10-04 23:11:18.168359,eda,1728083524789027,2024-10-04 23:12:04.789027,0.155208945274353,,
787,76646,1-1-001,2024-10-04 23:11:18.168359,eda,1728083525039027,2024-10-04 23:12:05.039027,0.1565412580966949,,
788,76647,1-1-001,2024-10-04 23:11:18.168359,eda,1728083525289027,2024-10-04 23:12:05.289027,0.1579437106847763,,
789,76648,1-1-001,2024-10-04 23:11:18.168359,eda,1728083525539027,2024-10-04 23:12:05.539027,0.1576632112264633,,
790,76649,1-1-001,2024-10-04 23:11:18.168359,eda,1728083525789027,2024-10-04 23:12:05.789027,0.1562747955322265,,
791,76650,1-1-001,2024-10-04 23:11:18.168359,eda,1728083526039027,2024-10-04 23:12:06.039027,0.1550546735525131,,
792,76651,1-1-001,2024-10-04 23:11:18.168359,eda,1728083526289027,2024-10-04 23:12:06.289027,0.1542973518371582,,
793,76652,1-1-001,2024-10-04 23:11:18.168359,eda,1728083526539027,2024-10-04 23:12:06.539027,0.1530631929636001,,
794,76653,1-1-001,2024-10-04 23:11:18.168359,eda,1728083526789027,2024-10-04 23:12:06.789027,0.1540589332580566,,
795,76654,1-1-001,2024-10-04 23:11:18.168359,eda,1728083527039027,2024-10-04 23:12:07.039027,0.1540449112653732,,
796,76655,1-1-001,2024-10-04 23:11:18.168359,eda,1728083527289027,2024-10-04 23:12:07.289027,0.1547601521015167,,
797,76656,1-1-001,2024-10-04 23:11:18.168359,eda,1728083527539027,2024-10-04 23:12:07.539027,0.1534138172864914,,
798,76657,1-1-001,2024-10-04 23:11:18.168359,eda,1728083527789027,2024-10-04 23:12:07.789027,0.1539186835289001,,
799,76658,1-1-001,2024-10-04 23:11:18.168359,eda,1728083528039027,2024-10-04 23:12:08.039027,0.1539046615362167,,
800,76659,1-1-001,2024-10-04 23:11:18.168359,eda,1728083528289027,2024-10-04 23:12:08.289027,0.1531753987073898,,
801,76660,1-1-001,2024-10-04 23:11:18.168359,eda,1728083528539027,2024-10-04 23:12:08.539027,0.1549705266952514,,
802,76661,1-1-001,2024-10-04 23:11:18.168359,eda,1728083528789027,2024-10-04 23:12:08.789027,0.1532735675573349,,
803,76662,1-1-001,2024-10-04 23:11:18.168359,eda,1728083529039027,2024-10-04 23:12:09.039027,0.1551388204097747,,
804,76663,1-1-001,2024-10-04 23:11:18.168359,eda,1728083529289027,2024-10-04 23:12:09.289027,0.1512961238622665,,
805,76664,1-1-001,2024-10-04 23:11:18.168359,eda,1728083529539027,2024-10-04 23:12:09.539027,0.1506089270114898,,
806,76665,1-1-001,2024-10-04 23:11:18.168359,eda,1728083529789027,2024-10-04 23:12:09.789027,0.1486174464225769,,
807,76666,1-1-001,2024-10-04 23:11:18.168359,eda,1728083530039027,2024-10-04 23:12:10.039027,0.1476637870073318,,
808,76667,1-1-001,2024-10-04 23:11:18.168359,eda,1728083530289027,2024-10-04 23:12:10.289027,0.1485332995653152,,
809,76668,1-1-001,2024-10-04 23:11:18.168359,eda,1728083530539027,2024-10-04 23:12:10.539027,0.1497955024242401,,
810,76669,1-1-001,2024-10-04 23:11:18.168359,eda,1728083530789027,2024-10-04 23:12:10.789027,0.1512540429830551,,
811,76670,1-1-001,2024-10-04 23:11:18.168359,eda,1728083531039027,2024-10-04 23:12:11.039027,0.1498095244169235,,
812,76671,1-1-001,2024-10-04 23:11:18.168359,eda,1728083531289027,2024-10-04 23:12:11.289027,0.1483369618654251,,
813,76672,1-1-001,2024-10-04 23:11:18.168359,eda,1728083531539027,2024-10-04 23:12:11.539027,0.1494028121232986,,
814,76673,1-1-001,2024-10-04 23:11:18.168359,eda,1728083531789027,2024-10-04 23:12:11.789027,0.1491363495588302,,
815,76674,1-1-001,2024-10-04 23:11:18.168359,eda,1728083532039027,2024-10-04 23:12:12.039027,0.1492485553026199,,
816,76675,1-1-001,2024-10-04 23:11:18.168359,eda,1728083532289027,2024-10-04 23:12:12.289027,0.1478180587291717,,
817,76676,1-1-001,2024-10-04 23:11:18.168359,eda,1728083532539027,2024-10-04 23:12:12.539027,0.1416753530502319,,
818,76677,1-1-001,2024-10-04 23:11:18.168359,eda,1728083532789027,2024-10-04 23:12:12.789027,0.1398521661758422,,
819,76678,1-1-001,2024-10-04 23:11:18.168359,eda,1728083533039027,2024-10-04 23:12:13.039027,0.1384637504816055,,
820,76679,1-1-001,2024-10-04 23:11:18.168359,eda,1728083533289027,2024-10-04 23:12:13.289027,0.1444942653179168,,
821,76680,1-1-001,2024-10-04 23:11:18.168359,eda,1728083533539027,2024-10-04 23:12:13.539027,0.1462332904338836,,
822,76681,1-1-001,2024-10-04 23:11:18.168359,eda,1728083533789027,2024-10-04 23:12:13.789027,0.1474534273147583,,
823,76682,1-1-001,2024-10-04 23:11:18.168359,eda,1728083534039027,2024-10-04 23:12:14.039027,0.1480845212936401,,
824,76683,1-1-001,2024-10-04 23:11:18.168359,eda,1728083534289027,2024-10-04 23:12:14.289027,0.1512400209903717,,
825,76684,1-1-001,2024-10-04 23:11:18.168359,eda,1728083534539027,2024-10-04 23:12:14.539027,0.1509875804185867,,
826,76685,1-1-001,2024-10-04 23:11:18.168359,eda,1728083534789027,2024-10-04 23:12:14.789027,0.1494589149951934,,
827,76686,1-1-001,2024-10-04 23:11:18.168359,eda,1728083535039027,2024-10-04 23:12:15.039027,0.1492345333099365,,
828,76687,1-1-001,2024-10-04 23:11:18.168359,eda,1728083535289027,2024-10-04 23:12:15.289027,0.1494168490171432,,
829,76688,1-1-001,2024-10-04 23:11:18.168359,eda,1728083535539027,2024-10-04 23:12:15.539027,0.1515205055475235,,
830,76689,1-1-001,2024-10-04 23:11:18.168359,eda,1728083535789027,2024-10-04 23:12:15.789027,0.1493747681379318,,
831,76690,1-1-001,2024-10-04 23:11:18.168359,eda,1728083536039027,2024-10-04 23:12:16.039027,0.1511698961257934,,
832,76691,1-1-001,2024-10-04 23:11:18.168359,eda,1728083536289027,2024-10-04 23:12:16.289027,0.1506790369749069,,
833,76692,1-1-001,2024-10-04 23:11:18.168359,eda,1728083536539027,2024-10-04 23:12:16.539027,0.1524461209774017,,
834,76693,1-1-001,2024-10-04 23:11:18.168359,eda,1728083536789027,2024-10-04 23:12:16.789027,0.1506650149822235,,
835,76694,1-1-001,2024-10-04 23:11:18.168359,eda,1728083537039027,2024-10-04 23:12:17.039027,0.1487857401371002,,
836,76695,1-1-001,2024-10-04 23:11:18.168359,eda,1728083537289027,2024-10-04 23:12:17.289027,0.1505388021469116,,
837,76696,1-1-001,2024-10-04 23:11:18.168359,eda,1728083537539027,2024-10-04 23:12:17.539027,0.1509314775466919,,
838,76697,1-1-001,2024-10-04 23:11:18.168359,eda,1728083537789027,2024-10-04 23:12:17.789027,0.1499357521533966,,
839,76698,1-1-001,2024-10-04 23:11:18.168359,eda,1728083538039027,2024-10-04 23:12:18.039027,0.1489540338516235,,
840,76699,1-1-001,2024-10-04 23:11:18.168359,eda,1728083538289027,2024-10-04 23:12:18.289027,0.1471729278564453,,
841,76700,1-1-001,2024-10-04 23:11:18.168359,eda,1728083538539027,2024-10-04 23:12:18.539027,0.1466820836067199,,
842,76701,1-1-001,2024-10-04 23:11:18.168359,eda,1728083538789027,2024-10-04 23:12:18.789027,0.14652781188488,,
843,76702,1-1-001,2024-10-04 23:11:18.168359,eda,1728083539039027,2024-10-04 23:12:19.039027,0.141871690750122,,
844,76703,1-1-001,2024-10-04 23:11:18.168359,eda,1728083539289027,2024-10-04 23:12:19.289027,0.1463174372911453,,
845,76704,1-1-001,2024-10-04 23:11:18.168359,eda,1728083539539027,2024-10-04 23:12:19.539027,0.1477479338645935,,
846,76705,1-1-001,2024-10-04 23:11:18.168359,eda,1728083539789027,2024-10-04 23:12:19.789027,0.1481266021728515,,
847,76706,1-1-001,2024-10-04 23:11:18.168359,eda,1728083540039027,2024-10-04 23:12:20.039027,0.1493887901306152,,
848,76707,1-1-001,2024-10-04 23:11:18.168359,eda,1728083540289027,2024-10-04 23:12:20.289027,0.1472290307283401,,
849,76708,1-1-001,2024-10-04 23:11:18.168359,eda,1728083540539027,2024-10-04 23:12:20.539027,0.1477759778499603,,
850,76709,1-1-001,2024-10-04 23:11:18.168359,eda,1728083540789027,2024-10-04 23:12:20.789027,0.1479162275791168,,
851,76710,1-1-001,2024-10-04 23:11:18.168359,eda,1728083541039027,2024-10-04 23:12:21.039027,0.1468924432992935,,
852,76711,1-1-001,2024-10-04 23:11:18.168359,eda,1728083541289027,2024-10-04 23:12:21.289027,0.1481686681509018,,
853,76712,1-1-001,2024-10-04 23:11:18.168359,eda,1728083541539027,2024-10-04 23:12:21.539027,0.1501601338386535,,
854,76713,1-1-001,2024-10-04 23:11:18.168359,eda,1728083541789027,2024-10-04 23:12:21.789027,0.1492625772953033,,
855,76714,1-1-001,2024-10-04 23:11:18.168359,eda,1728083542039027,2024-10-04 23:12:22.039027,0.1480564773082733,,
856,76715,1-1-001,2024-10-04 23:11:18.168359,eda,1728083542289027,2024-10-04 23:12:22.289027,0.1480143964290619,,
857,76716,1-1-001,2024-10-04 23:11:18.168359,eda,1728083542539027,2024-10-04 23:12:22.539027,0.1486034244298935,,
858,76717,1-1-001,2024-10-04 23:11:18.168359,eda,1728083542789027,2024-10-04 23:12:22.789027,0.1482808589935302,,
859,76718,1-1-001,2024-10-04 23:11:18.168359,eda,1728083543039027,2024-10-04 23:12:23.039027,0.1488558650016784,,
860,76719,1-1-001,2024-10-04 23:11:18.168359,eda,1728083543289027,2024-10-04 23:12:23.289027,0.148491233587265,,
861,76720,1-1-001,2024-10-04 23:11:18.168359,eda,1728083543539027,2024-10-04 23:12:23.539027,0.1483229398727417,,
862,76721,1-1-001,2024-10-04 23:11:18.168359,eda,1728083543789027,2024-10-04 23:12:23.789027,0.1488979458808899,,
863,76722,1-1-001,2024-10-04 23:11:18.168359,eda,1728083544039027,2024-10-04 23:12:24.039027,0.1498516052961349,,
864,76723,1-1-001,2024-10-04 23:11:18.168359,eda,1728083544289027,2024-10-04 23:12:24.289027,0.1482668370008468,,
865,76724,1-1-001,2024-10-04 23:11:18.168359,eda,1728083544539027,2024-10-04 23:12:24.539027,0.1489540338516235,,
866,76725,1-1-001,2024-10-04 23:11:18.168359,eda,1728083544789027,2024-10-04 23:12:24.789027,0.1495570838451385,,
867,76726,1-1-001,2024-10-04 23:11:18.168359,eda,1728083545039027,2024-10-04 23:12:25.039027,0.1480003744363784,,
868,76727,1-1-001,2024-10-04 23:11:18.168359,eda,1728083545289027,2024-10-04 23:12:25.289027,0.1492204964160919,,
869,76728,1-1-001,2024-10-04 23:11:18.168359,eda,1728083545539027,2024-10-04 23:12:25.539027,0.14738330245018,,
870,76729,1-1-001,2024-10-04 23:11:18.168359,eda,1728083545789027,2024-10-04 23:12:25.789027,0.148491233587265,,
871,76730,1-1-001,2024-10-04 23:11:18.168359,eda,1728083546039027,2024-10-04 23:12:26.039027,0.1476778090000152,,
872,76731,1-1-001,2024-10-04 23:11:18.168359,eda,1728083546289027,2024-10-04 23:12:26.289027,0.1485332995653152,,
873,76732,1-1-001,2024-10-04 23:11:18.168359,eda,1728083546539027,2024-10-04 23:12:26.539027,0.1477058678865432,,
874,76733,1-1-001,2024-10-04 23:11:18.168359,eda,1728083546789027,2024-10-04 23:12:26.789027,0.1482247710227966,,
875,76734,1-1-001,2024-10-04 23:11:18.168359,eda,1728083547039027,2024-10-04 23:12:27.039027,0.1499918401241302,,
876,76735,1-1-001,2024-10-04 23:11:18.168359,eda,1728083547289027,2024-10-04 23:12:27.289027,0.1519973427057266,,
877,76736,1-1-001,2024-10-04 23:11:18.168359,eda,1728083547539027,2024-10-04 23:12:27.539027,0.1560083329677581,,
878,76737,1-1-001,2024-10-04 23:11:18.168359,eda,1728083547789027,2024-10-04 23:12:27.789027,0.1636797040700912,,
879,76738,1-1-001,2024-10-04 23:11:18.168359,eda,1728083548039027,2024-10-04 23:12:28.039027,0.1666669100522995,,
880,76739,1-1-001,2024-10-04 23:11:18.168359,eda,1728083548289027,2024-10-04 23:12:28.289027,0.166554719209671,,
881,76740,1-1-001,2024-10-04 23:11:18.168359,eda,1728083548539027,2024-10-04 23:12:28.539027,0.1661059260368347,,
882,76741,1-1-001,2024-10-04 23:11:18.168359,eda,1728083548789027,2024-10-04 23:12:28.789027,0.1647595912218094,,
883,76742,1-1-001,2024-10-04 23:11:18.168359,eda,1728083549039027,2024-10-04 23:12:29.039027,0.1632028669118881,,
884,76743,1-1-001,2024-10-04 23:11:18.168359,eda,1728083549289027,2024-10-04 23:12:29.289027,0.1609309166669845,,
885,76744,1-1-001,2024-10-04 23:11:18.168359,eda,1728083549539027,2024-10-04 23:12:29.539027,0.1623193323612213,,
886,76745,1-1-001,2024-10-04 23:11:18.168359,eda,1728083549789027,2024-10-04 23:12:29.789027,0.1610150635242462,,
887,76746,1-1-001,2024-10-04 23:11:18.168359,eda,1728083550039027,2024-10-04 23:12:30.039027,0.1611132323741912,,
888,76747,1-1-001,2024-10-04 23:11:18.168359,eda,1728083550289027,2024-10-04 23:12:30.289027,0.1607626229524612,,
889,76748,1-1-001,2024-10-04 23:11:18.168359,eda,1728083550539027,2024-10-04 23:12:30.539027,0.1617583483457565,,
890,76749,1-1-001,2024-10-04 23:11:18.168359,eda,1728083550789027,2024-10-04 23:12:30.789027,0.1604681015014648,,
891,76750,1-1-001,2024-10-04 23:11:18.168359,eda,1728083551039027,2024-10-04 23:12:31.039027,0.1608607918024063,,
892,76751,1-1-001,2024-10-04 23:11:18.168359,eda,1728083551289027,2024-10-04 23:12:31.289027,0.1605943292379379,,
893,76752,1-1-001,2024-10-04 23:11:18.168359,eda,1728083551539027,2024-10-04 23:12:31.539027,0.159935176372528,,
894,76753,1-1-001,2024-10-04 23:11:18.168359,eda,1728083551789027,2024-10-04 23:12:31.789027,0.1600333452224731,,
895,76754,1-1-001,2024-10-04 23:11:18.168359,eda,1728083552039027,2024-10-04 23:12:32.039027,0.1590937077999115,,
896,76755,1-1-001,2024-10-04 23:11:18.168359,eda,1728083552289027,2024-10-04 23:12:32.289027,0.1597248166799545,,
897,76756,1-1-001,2024-10-04 23:11:18.168359,eda,1728083552539027,2024-10-04 23:12:32.539027,0.1594443172216415,,
898,76757,1-1-001,2024-10-04 23:11:18.168359,eda,1728083552789027,2024-10-04 23:12:32.789027,0.1595284640789032,,
899,76758,1-1-001,2024-10-04 23:11:18.168359,eda,1728083553039027,2024-10-04 23:12:33.039027,0.1591498106718063,,
900,76759,1-1-001,2024-10-04 23:11:18.168359,eda,1728083553289027,2024-10-04 23:12:33.289027,0.157775416970253,,
901,76760,1-1-001,2024-10-04 23:11:18.168359,eda,1728083553539027,2024-10-04 23:12:33.539027,0.1578595638275146,,
902,76761,1-1-001,2024-10-04 23:11:18.168359,eda,1728083553789027,2024-10-04 23:12:33.789027,0.1581961512565612,,
903,76762,1-1-001,2024-10-04 23:11:18.168359,eda,1728083554039027,2024-10-04 23:12:34.039027,0.1575931012630462,,
904,76763,1-1-001,2024-10-04 23:11:18.168359,eda,1728083554289027,2024-10-04 23:12:34.289027,0.1552650332450866,,
905,76764,1-1-001,2024-10-04 23:11:18.168359,eda,1728083554539027,2024-10-04 23:12:34.539027,0.15613454580307,,
906,76765,1-1-001,2024-10-04 23:11:18.168359,eda,1728083554789027,2024-10-04 23:12:34.789027,0.1539327204227447,,
907,76766,1-1-001,2024-10-04 23:11:18.168359,eda,1728083555039027,2024-10-04 23:12:35.039027,0.1540869772434234,,
908,76767,1-1-001,2024-10-04 23:11:18.168359,eda,1728083555289027,2024-10-04 23:12:35.289027,0.1551949083805084,,
909,76768,1-1-001,2024-10-04 23:11:18.168359,eda,1728083555539027,2024-10-04 23:12:35.539027,0.154605895280838,,
910,76769,1-1-001,2024-10-04 23:11:18.168359,eda,1728083555789027,2024-10-04 23:12:35.789027,0.1548723578453064,,
911,76770,1-1-001,2024-10-04 23:11:18.168359,eda,1728083556039027,2024-10-04 23:12:36.039027,0.155811995267868,,
912,76771,1-1-001,2024-10-04 23:11:18.168359,eda,1728083556289027,2024-10-04 23:12:36.289027,0.1555735766887664,,
913,76772,1-1-001,2024-10-04 23:11:18.168359,eda,1728083556539027,2024-10-04 23:12:36.539027,0.1551388204097747,,
914,76773,1-1-001,2024-10-04 23:11:18.168359,eda,1728083556789027,2024-10-04 23:12:36.789027,0.1537363678216934,,
915,76774,1-1-001,2024-10-04 23:11:18.168359,eda,1728083557039027,2024-10-04 23:12:37.039027,0.1531613767147064,,
916,76775,1-1-001,2024-10-04 23:11:18.168359,eda,1728083557289027,2024-10-04 23:12:37.289027,0.1530912518501281,,
917,76776,1-1-001,2024-10-04 23:11:18.168359,eda,1728083557539027,2024-10-04 23:12:37.539027,0.1485753804445266,,
918,76777,1-1-001,2024-10-04 23:11:18.168359,eda,1728083557789027,2024-10-04 23:12:37.789027,0.1494028121232986,,
919,76778,1-1-001,2024-10-04 23:11:18.168359,eda,1728083558039027,2024-10-04 23:12:38.039027,0.153497964143753,,
920,76779,1-1-001,2024-10-04 23:11:18.168359,eda,1728083558289027,2024-10-04 23:12:38.289027,0.1533997803926468,,
921,76780,1-1-001,2024-10-04 23:11:18.168359,eda,1728083558539027,2024-10-04 23:12:38.539027,0.1536101549863815,,
922,76781,1-1-001,2024-10-04 23:11:18.168359,eda,1728083558789027,2024-10-04 23:12:38.789027,0.1535260081291198,,
923,76782,1-1-001,2024-10-04 23:11:18.168359,eda,1728083559039027,2024-10-04 23:12:39.039027,0.1527125835418701,,
924,76783,1-1-001,2024-10-04 23:11:18.168359,eda,1728083559289027,2024-10-04 23:12:39.289027,0.154101014137268,,
925,76784,1-1-001,2024-10-04 23:11:18.168359,eda,1728083559539027,2024-10-04 23:12:39.539027,0.1498235464096069,,
926,76785,1-1-001,2024-10-04 23:11:18.168359,eda,1728083559789027,2024-10-04 23:12:39.789027,0.1527686864137649,,
927,76786,1-1-001,2024-10-04 23:11:18.168359,eda,1728083560039027,2024-10-04 23:12:40.039027,0.1499918401241302,,
928,76787,1-1-001,2024-10-04 23:11:18.168359,eda,1728083560289027,2024-10-04 23:12:40.289027,0.1525022238492965,,
929,76788,1-1-001,2024-10-04 23:11:18.168359,eda,1728083560539027,2024-10-04 23:12:40.539027,0.1503985524177551,,
930,76789,1-1-001,2024-10-04 23:11:18.168359,eda,1728083560789027,2024-10-04 23:12:40.789027,0.1477759778499603,,
931,76790,1-1-001,2024-10-04 23:11:18.168359,eda,1728083561039027,2024-10-04 23:12:41.039027,0.1468363404273986,,
932,76791,1-1-001,2024-10-04 23:11:18.168359,eda,1728083561289027,2024-10-04 23:12:41.289027,0.1469625681638717,,
933,76792,1-1-001,2024-10-04 23:11:18.168359,eda,1728083561539027,2024-10-04 23:12:41.539027,0.1467241495847702,,
934,76793,1-1-001,2024-10-04 23:11:18.168359,eda,1728083561789027,2024-10-04 23:12:41.789027,0.1469485461711883,,
935,76794,1-1-001,2024-10-04 23:11:18.168359,eda,1728083562039027,2024-10-04 23:12:42.039027,0.1481406241655349,,
936,76795,1-1-001,2024-10-04 23:11:18.168359,eda,1728083562289027,2024-10-04 23:12:42.289027,0.1466680467128753,,
937,76796,1-1-001,2024-10-04 23:11:18.168359,eda,1728083562539027,2024-10-04 23:12:42.539027,0.1466540247201919,,
938,76797,1-1-001,2024-10-04 23:11:18.168359,eda,1728083562789027,2024-10-04 23:12:42.789027,0.1481826901435852,,
939,76798,1-1-001,2024-10-04 23:11:18.168359,eda,1728083563039027,2024-10-04 23:12:43.039027,0.1477900147438049,,
940,76799,1-1-001,2024-10-04 23:11:18.168359,eda,1728083563289027,2024-10-04 23:12:43.289027,0.1481125652790069,,
941,76800,1-1-001,2024-10-04 23:11:18.168359,eda,1728083563539027,2024-10-04 23:12:43.539027,0.1474814713001251,,
942,76801,1-1-001,2024-10-04 23:11:18.168359,eda,1728083563789027,2024-10-04 23:12:43.789027,0.147004634141922,,
943,76802,1-1-001,2024-10-04 23:11:18.168359,eda,1728083564039027,2024-10-04 23:12:44.039027,0.1471729278564453,,
944,76803,1-1-001,2024-10-04 23:11:18.168359,eda,1728083564289027,2024-10-04 23:12:44.289027,0.146752193570137,,
945,76804,1-1-001,2024-10-04 23:11:18.168359,eda,1728083564539027,2024-10-04 23:12:44.539027,0.1464576870203018,,
946,76805,1-1-001,2024-10-04 23:11:18.168359,eda,1728083564789027,2024-10-04 23:12:44.789027,0.1473692804574966,,
947,76806,1-1-001,2024-10-04 23:11:18.168359,eda,1728083565039027,2024-10-04 23:12:45.039027,0.1463454961776733,,
948,76807,1-1-001,2024-10-04 23:11:18.168359,eda,1728083565289027,2024-10-04 23:12:45.289027,0.1473271995782852,,
949,76808,1-1-001,2024-10-04 23:11:18.168359,eda,1728083565539027,2024-10-04 23:12:45.539027,0.1473412215709686,,
950,76809,1-1-001,2024-10-04 23:11:18.168359,eda,1728083565789027,2024-10-04 23:12:45.789027,0.1465137898921966,,
951,76810,1-1-001,2024-10-04 23:11:18.168359,eda,1728083566039027,2024-10-04 23:12:46.039027,0.1471729278564453,,
952,76811,1-1-001,2024-10-04 23:11:18.168359,eda,1728083566289027,2024-10-04 23:12:46.289027,0.1478741616010666,,
953,76812,1-1-001,2024-10-04 23:11:18.168359,eda,1728083566539027,2024-10-04 23:12:46.539027,0.1468082964420318,,
954,76813,1-1-001,2024-10-04 23:11:18.168359,eda,1728083566789027,2024-10-04 23:12:46.789027,0.1474954932928085,,
955,76814,1-1-001,2024-10-04 23:11:18.168359,eda,1728083567039027,2024-10-04 23:12:47.039027,0.147355243563652,,
956,76815,1-1-001,2024-10-04 23:11:18.168359,eda,1728083567289027,2024-10-04 23:12:47.289027,0.14738330245018,,
957,76816,1-1-001,2024-10-04 23:11:18.168359,eda,1728083567539027,2024-10-04 23:12:47.539027,0.1474814713001251,,
958,76817,1-1-001,2024-10-04 23:11:18.168359,eda,1728083567789027,2024-10-04 23:12:47.789027,0.1473131775856018,,
959,76818,1-1-001,2024-10-04 23:11:18.168359,eda,1728083568039027,2024-10-04 23:12:48.039027,0.1471448838710785,,
960,76819,1-1-001,2024-10-04 23:11:18.168359,eda,1728083568289027,2024-10-04 23:12:48.289027,0.148463174700737,,
961,76820,1-1-001,2024-10-04 23:11:18.168359,eda,1728083568539027,2024-10-04 23:12:48.539027,0.1482668370008468,,
962,76821,1-1-001,2024-10-04 23:11:18.168359,eda,1728083568789027,2024-10-04 23:12:48.789027,0.1494729369878769,,
963,76822,1-1-001,2024-10-04 23:11:18.168359,eda,1728083569039027,2024-10-04 23:12:49.039027,0.148491233587265,,
964,76823,1-1-001,2024-10-04 23:11:18.168359,eda,1728083569289027,2024-10-04 23:12:49.289027,0.1482948809862136,,
965,76824,1-1-001,2024-10-04 23:11:18.168359,eda,1728083569539027,2024-10-04 23:12:49.539027,0.1483229398727417,,
966,76825,1-1-001,2024-10-04 23:11:18.168359,eda,1728083569789027,2024-10-04 23:12:49.789027,0.1486174464225769,,
967,76826,1-1-001,2024-10-04 23:11:18.168359,eda,1728083570039027,2024-10-04 23:12:50.039027,0.1479442715644836,,
968,76827,1-1-001,2024-10-04 23:11:18.168359,eda,1728083570289027,2024-10-04 23:12:50.289027,0.1477759778499603,,
969,76828,1-1-001,2024-10-04 23:11:18.168359,eda,1728083570539027,2024-10-04 23:12:50.539027,0.1476778090000152,,
970,76829,1-1-001,2024-10-04 23:11:18.168359,eda,1728083570789027,2024-10-04 23:12:50.789027,0.147355243563652,,
971,76830,1-1-001,2024-10-04 23:11:18.168359,eda,1728083571039027,2024-10-04 23:12:51.039027,0.1467942744493484,,
972,76831,1-1-001,2024-10-04 23:11:18.168359,eda,1728083571289027,2024-10-04 23:12:51.289027,0.1462192684412002,,
973,76832,1-1-001,2024-10-04 23:11:18.168359,eda,1728083571539027,2024-10-04 23:12:51.539027,0.1471869498491287,,
974,76833,1-1-001,2024-10-04 23:11:18.168359,eda,1728083571789027,2024-10-04 23:12:51.789027,0.1478040367364883,,
975,76834,1-1-001,2024-10-04 23:11:18.168359,eda,1728083572039027,2024-10-04 23:12:52.039027,0.1472851336002349,,
976,76835,1-1-001,2024-10-04 23:11:18.168359,eda,1728083572289027,2024-10-04 23:12:52.289027,0.1473692804574966,,
977,76836,1-1-001,2024-10-04 23:11:18.168359,eda,1728083572539027,2024-10-04 23:12:52.539027,0.14738330245018,,
978,76837,1-1-001,2024-10-04 23:11:18.168359,eda,1728083572789027,2024-10-04 23:12:52.789027,0.1474814713001251,,
979,76838,1-1-001,2024-10-04 23:11:18.168359,eda,1728083573039027,2024-10-04 23:12:53.039027,0.1475095152854919,,
980,76839,1-1-001,2024-10-04 23:11:18.168359,eda,1728083573289027,2024-10-04 23:12:53.289027,0.1464156061410904,,
981,76840,1-1-001,2024-10-04 23:11:18.168359,eda,1728083573539027,2024-10-04 23:12:53.539027,0.1464436650276184,,
982,76841,1-1-001,2024-10-04 23:11:18.168359,eda,1728083573789027,2024-10-04 23:12:53.789027,0.1460089087486267,,
983,76842,1-1-001,2024-10-04 23:11:18.168359,eda,1728083574039027,2024-10-04 23:12:54.039027,0.1463875621557235,,
984,76843,1-1-001,2024-10-04 23:11:18.168359,eda,1728083574289027,2024-10-04 23:12:54.289027,0.1463735401630401,,
985,76844,1-1-001,2024-10-04 23:11:18.168359,eda,1728083574539027,2024-10-04 23:12:54.539027,0.1474534273147583,,
986,76845,1-1-001,2024-10-04 23:11:18.168359,eda,1728083574789027,2024-10-04 23:12:54.789027,0.1463595181703567,,
987,76846,1-1-001,2024-10-04 23:11:18.168359,eda,1728083575039027,2024-10-04 23:12:55.039027,0.1469765901565551,,
988,76847,1-1-001,2024-10-04 23:11:18.168359,eda,1728083575289027,2024-10-04 23:12:55.289027,0.1473973244428634,,
989,76848,1-1-001,2024-10-04 23:11:18.168359,eda,1728083575539027,2024-10-04 23:12:55.539027,0.1461210995912552,,
990,76849,1-1-001,2024-10-04 23:11:18.168359,eda,1728083575789027,2024-10-04 23:12:55.789027,0.1472991555929184,,
991,76850,1-1-001,2024-10-04 23:11:18.168359,eda,1728083576039027,2024-10-04 23:12:56.039027,0.1463174372911453,,
992,76851,1-1-001,2024-10-04 23:11:18.168359,eda,1728083576289027,2024-10-04 23:12:56.289027,0.1469765901565551,,
993,76852,1-1-001,2024-10-04 23:11:18.168359,eda,1728083576539027,2024-10-04 23:12:56.539027,0.1465137898921966,,
994,76853,1-1-001,2024-10-04 23:11:18.168359,eda,1728083576789027,2024-10-04 23:12:56.789027,0.1476918309926986,,
995,76854,1-1-001,2024-10-04 23:11:18.168359,eda,1728083577039027,2024-10-04 23:12:57.039027,0.1473692804574966,,
996,76855,1-1-001,2024-10-04 23:11:18.168359,eda,1728083577289027,2024-10-04 23:12:57.289027,0.1460369527339935,,
997,76856,1-1-001,2024-10-04 23:11:18.168359,eda,1728083577539027,2024-10-04 23:12:57.539027,0.1474954932928085,,
998,76857,1-1-001,2024-10-04 23:11:18.168359,eda,1728083577789027,2024-10-04 23:12:57.789027,0.1460790187120437,,
999,76858,1-1-001,2024-10-04 23:11:18.168359,eda,1728083578039027,2024-10-04 23:12:58.039027,0.1476918309926986,,
1000,76859,1-1-001,2024-10-04 23:11:18.168359,eda,1728083578289027,2024-10-04 23:12:58.289027,0.1476637870073318,,
1001,76860,1-1-001,2024-10-04 23:11:18.168359,eda,1728083578539027,2024-10-04 23:12:58.539027,0.1459948867559433,,
1002,76861,1-1-001,2024-10-04 23:11:18.168359,eda,1728083578789027,2024-10-04 23:12:58.789027,0.1453357338905334,,
1003,76862,1-1-001,2024-10-04 23:11:18.168359,eda,1728083579039027,2024-10-04 23:12:59.039027,0.1463595181703567,,
1004,76863,1-1-001,2024-10-04 23:11:18.168359,eda,1728083579289027,2024-10-04 23:12:59.289027,0.1460089087486267,,
1005,76864,1-1-001,2024-10-04 23:11:18.168359,eda,1728083579539027,2024-10-04 23:12:59.539027,0.1457143872976303,,
1006,76865,1-1-001,2024-10-04 23:11:18.168359,eda,1728083579789027,2024-10-04 23:12:59.789027,0.1461631655693054,,
1007,76866,1-1-001,2024-10-04 23:11:18.168359,eda,1728083580039027,2024-10-04 23:13:00.039027,0.1485332995653152,,
1008,76867,1-1-001,2024-10-04 23:11:18.168359,eda,1728083580289027,2024-10-04 23:13:00.289027,0.1460089087486267,,
1009,76868,1-1-001,2024-10-04 23:11:18.168359,eda,1728083580539027,2024-10-04 23:13:00.539027,0.1476637870073318,,
1010,76869,1-1-001,2024-10-04 23:11:18.168359,eda,1728083580789027,2024-10-04 23:13:00.789027,0.145924761891365,,
1011,76870,1-1-001,2024-10-04 23:11:18.168359,eda,1728083581039027,2024-10-04 23:13:01.039027,0.1460930556058883,,
1012,76871,1-1-001,2024-10-04 23:11:18.168359,eda,1728083581289027,2024-10-04 23:13:01.289027,0.145924761891365,,
1013,76872,1-1-001,2024-10-04 23:11:18.168359,eda,1728083581539027,2024-10-04 23:13:01.539027,0.1473131775856018,,
1014,76873,1-1-001,2024-10-04 23:11:18.168359,eda,1728083581789027,2024-10-04 23:13:01.789027,0.1480704993009567,,
1015,76874,1-1-001,2024-10-04 23:11:18.168359,eda,1728083582039027,2024-10-04 23:13:02.039027,0.1484070867300033,,
1016,76875,1-1-001,2024-10-04 23:11:18.168359,eda,1728083582289027,2024-10-04 23:13:02.289027,0.1474674493074417,,
1017,76876,1-1-001,2024-10-04 23:11:18.168359,eda,1728083582539027,2024-10-04 23:13:02.539027,0.1484772115945816,,
1018,76877,1-1-001,2024-10-04 23:11:18.168359,eda,1728083582789027,2024-10-04 23:13:02.789027,0.14703269302845,,
1019,76878,1-1-001,2024-10-04 23:11:18.168359,eda,1728083583039027,2024-10-04 23:13:03.039027,0.1459107398986816,,
1020,76879,1-1-001,2024-10-04 23:11:18.168359,eda,1728083583289027,2024-10-04 23:13:03.289027,0.1469064652919769,,
1021,76880,1-1-001,2024-10-04 23:11:18.168359,eda,1728083583539027,2024-10-04 23:13:03.539027,0.146247312426567,,
1022,76881,1-1-001,2024-10-04 23:11:18.168359,eda,1728083583789027,2024-10-04 23:13:03.789027,0.1466961055994033,,
1023,76882,1-1-001,2024-10-04 23:11:18.168359,eda,1728083584039027,2024-10-04 23:13:04.039027,0.1472991555929184,,
1024,76883,1-1-001,2024-10-04 23:11:18.168359,eda,1728083584289027,2024-10-04 23:13:04.289027,0.1477479338645935,,
1025,76884,1-1-001,2024-10-04 23:11:18.168359,eda,1728083584539027,2024-10-04 23:13:04.539027,0.1459528058767318,,
1026,76885,1-1-001,2024-10-04 23:11:18.168359,eda,1728083584789027,2024-10-04 23:13:04.789027,0.1449991464614868,,
1027,76886,1-1-001,2024-10-04 23:11:18.168359,eda,1728083585039027,2024-10-04 23:13:05.039027,0.1450271904468536,,
1028,76887,1-1-001,2024-10-04 23:11:18.168359,eda,1728083585289027,2024-10-04 23:13:05.289027,0.1447046250104904,,
1029,76888,1-1-001,2024-10-04 23:11:18.168359,eda,1728083585539027,2024-10-04 23:13:05.539027,0.1441576778888702,,
1030,76889,1-1-001,2024-10-04 23:11:18.168359,eda,1728083585789027,2024-10-04 23:13:05.789027,0.1442418247461319,,
1031,76890,1-1-001,2024-10-04 23:11:18.168359,eda,1728083586039027,2024-10-04 23:13:06.039027,0.1459668278694152,,
1032,76891,1-1-001,2024-10-04 23:11:18.168359,eda,1728083586289027,2024-10-04 23:13:06.289027,0.1442838907241821,,
1033,76892,1-1-001,2024-10-04 23:11:18.168359,eda,1728083586539027,2024-10-04 23:13:06.539027,0.1445643901824951,,
1034,76893,1-1-001,2024-10-04 23:11:18.168359,eda,1728083586789027,2024-10-04 23:13:06.789027,0.145293653011322,,
1035,76894,1-1-001,2024-10-04 23:11:18.168359,eda,1728083587039027,2024-10-04 23:13:07.039027,0.145644262433052,,
1036,76895,1-1-001,2024-10-04 23:11:18.168359,eda,1728083587289027,2024-10-04 23:13:07.289027,0.144718661904335,,
1037,76896,1-1-001,2024-10-04 23:11:18.168359,eda,1728083587539027,2024-10-04 23:13:07.539027,0.1436808407306671,,
1038,76897,1-1-001,2024-10-04 23:11:18.168359,eda,1728083587789027,2024-10-04 23:13:07.789027,0.1446204781532287,,
1039,76898,1-1-001,2024-10-04 23:11:18.168359,eda,1728083588039027,2024-10-04 23:13:08.039027,0.1445924341678619,,
1040,76899,1-1-001,2024-10-04 23:11:18.168359,eda,1728083588289027,2024-10-04 23:13:08.289027,0.1440595090389251,,
1041,76900,1-1-001,2024-10-04 23:11:18.168359,eda,1728083588539027,2024-10-04 23:13:08.539027,0.1441155970096588,,
1042,76901,1-1-001,2024-10-04 23:11:18.168359,eda,1728083588789027,2024-10-04 23:13:08.789027,0.1436948776245117,,
1043,76902,1-1-001,2024-10-04 23:11:18.168359,eda,1728083589039027,2024-10-04 23:13:09.039027,0.1450973153114318,,
1044,76903,1-1-001,2024-10-04 23:11:18.168359,eda,1728083589289027,2024-10-04 23:13:09.289027,0.1446485370397567,,
1045,76904,1-1-001,2024-10-04 23:11:18.168359,eda,1728083589539027,2024-10-04 23:13:09.539027,0.1438631564378738,,
1046,76905,1-1-001,2024-10-04 23:11:18.168359,eda,1728083589789027,2024-10-04 23:13:09.789027,0.1451253592967987,,
1047,76906,1-1-001,2024-10-04 23:11:18.168359,eda,1728083590039027,2024-10-04 23:13:10.039027,0.1452515870332718,,
1048,76907,1-1-001,2024-10-04 23:11:18.168359,eda,1728083590289027,2024-10-04 23:13:10.289027,0.1449009776115417,,
1049,76908,1-1-001,2024-10-04 23:11:18.168359,eda,1728083590539027,2024-10-04 23:13:10.539027,0.1427552253007888,,
1050,76909,1-1-001,2024-10-04 23:11:18.168359,eda,1728083590789027,2024-10-04 23:13:10.789027,0.1451814621686935,,
1051,76910,1-1-001,2024-10-04 23:11:18.168359,eda,1728083591039027,2024-10-04 23:13:11.039027,0.1457143872976303,,
1052,76911,1-1-001,2024-10-04 23:11:18.168359,eda,1728083591289027,2024-10-04 23:13:11.289027,0.1440735310316085,,
